L01 EMG I - 肌電圖
檔案名:  G3-EMGR2-L01
星期五, 三月 23, 2018
08:34:35 下午
秒	EMG	EMG 積分
0.022	0.0268555	0.00292358
0.024	0.0231934	0.00319214
0.026	0.020752	0.00342407
0.028	0.0195313	0.00363159
0.03	0.0262451	0.0038269
0.032	0.0238037	0.00408936
0.034	0.00854492	0.00432739
0.036	0.00976563	0.00441284
0.038	0.0366211	0.0045105
0.04	0.0164795	0.00487671
0.042	0.0213623	0.0050415
0.044	0.0189209	0.00525513
0.046	0.020752	0.00544434
0.048	0.0213623	0.00565186
0.05	0.0183105	0.00586548
0.052	0.0195313	0.00604858
0.054	0.0183105	0.0062439
0.056	0.0201416	0.006427
0.058	0.0213623	0.00662842
0.06	0.0201416	0.00684204
0.062	0.0219727	0.00704346
0.064	0.0219727	0.00726318
0.066	0.020752	0.00748291
0.068	0.0201416	0.00769043
0.07	0.020752	0.00789185
0.072	0.0195313	0.00809937
0.074	0.0183105	0.00829468
0.076	0.0146484	0.00847778
0.078	0.0115967	0.00862427
0.08	0.0164795	0.00874023
0.082	0.012207	0.00890503
0.084	0.0115967	0.0090271
0.086	0.0128174	0.00914307
0.088	0.010376	0.00927124
0.09	0.00915527	0.009375
0.092	0.00976563	0.00946655
0.094	0.0134277	0.00956421
0.096	0.010376	0.00969849
0.098	0.00732422	0.00980225
0.1	0.0109863	0.00987549
0.102	0.0177002	0.00998535
0.104	0.0134277	0.0101624
0.106	0.0115967	0.0102966
0.108	0.0146484	0.0104126
0.11	0.0164795	0.0105591
0.112	0.0195313	0.0107239
0.114	0.0140381	0.0109192
0.116	0.0152588	0.0110596
0.118	0.0134277	0.0112122
0.12	0.0189209	0.0113464
0.122	0.0189209	0.0115356
0.124	0.0158691	0.0117249
0.126	0.0152588	0.0118835
0.128	0.0164795	0.0120361
0.13	0.0164795	0.0122009
0.132	0.0170898	0.0123657
0.134	0.0219727	0.0125366
0.136	0.0183105	0.0127563
0.138	-0.00427246	0.0129395
0.14	0.00488281	0.0129822
0.142	0.0213623	0.013031
0.144	0.00610352	0.0132446
0.146	0.00488281	0.0133057
0.148	0.00732422	0.0133545
0.15	0.0140381	0.0134277
0.152	0.012207	0.0135681
0.154	0.0170898	0.0136902
0.156	0.0170898	0.0138611
0.158	0.020752	0.014032
0.16	0.0238037	0.0142395
0.162	0.0213623	0.0144775
0.164	0.0189209	0.0146912
0.166	0.0219727	0.0148804
0.168	0.0268555	0.0151001
0.17	0.022583	0.0153687
0.172	0.0244141	0.0155945
0.174	0.0262451	0.0158386
0.176	0.0238037	0.0161011
0.178	0.0244141	0.0163391
0.18	0.0311279	0.0165833
0.182	0.0244141	0.0168945
0.184	0.0262451	0.0171387
0.186	0.0280762	0.0174011
0.188	0.0292969	0.0176819
0.19	0.0274658	0.0179749
0.192	0.0274658	0.0182495
0.194	0.0262451	0.0185242
0.196	0.0305176	0.0187866
0.198	0.0268555	0.0190918
0.2	0.0262451	0.0193481
0.202	0.0262451	0.0193481
0.204	0.0250244	0.019342
0.206	0.0250244	0.0193787
0.208	0.020752	0.0193237
0.21	0.0213623	0.0192871
0.212	0.0140381	0.0191833
0.214	0.0164795	0.0190186
0.216	0.0238037	0.0189819
0.218	0.0183105	0.0188904
0.22	0.0152588	0.0187622
0.222	0.0152588	0.0186462
0.224	0.0195313	0.0186096
0.226	0.0177002	0.0185791
0.228	0.00915527	0.0184753
0.23	0.0134277	0.0183472
0.232	0.00793457	0.0181885
0.234	-0.00305176	0.0181335
0.236	0.00549316	0.0180908
0.238	0.0152588	0.0178772
0.24	0.00732422	0.0177856
0.242	0.00244141	0.0175964
0.244	0.0109863	0.0175171
0.246	0.0189209	0.0174988
0.248	0.0177002	0.0174622
0.25	0.0195313	0.0174744
0.252	0.0183105	0.0174622
0.254	0.0189209	0.0174683
0.256	0.0201416	0.0174683
0.258	0.0256348	0.017511
0.26	0.0317383	0.017627
0.262	0.0280762	0.017688
0.264	0.0280762	0.017749
0.266	0.0244141	0.0177856
0.268	0.0292969	0.0178772
0.27	0.0311279	0.017981
0.272	0.0268555	0.0180542
0.274	0.0250244	0.0181213
0.276	0.020752	0.0181824
0.278	0.020752	0.0182739
0.28	0.020752	0.0183167
0.282	0.0292969	0.0184875
0.284	0.0170898	0.0185425
0.286	0.0115967	0.0185303
0.288	0.0177002	0.0186035
0.29	0.0146484	0.0186584
0.292	0.00976563	0.0186584
0.294	0.012207	0.0186462
0.296	0.00793457	0.0186218
0.298	0.00366211	0.0185852
0.3	0.0128174	0.0186035
0.302	0.00854492	0.018512
0.304	0.00488281	0.0184265
0.306	0.00366211	0.0183472
0.308	0.00549316	0.0182556
0.31	0.0158691	0.0182495
0.312	0.0158691	0.0182129
0.314	0.0109863	0.0181824
0.316	-0.00183105	0.0180481
0.318	0.0134277	0.0180481
0.32	0.0152588	0.0180115
0.322	0.00915527	0.0179138
0.324	0.0109863	0.017865
0.326	0.0012207	0.0177246
0.328	0.000610352	0.0175659
0.33	0.00244141	0.0174255
0.332	0.010376	0.0173584
0.334	0.00610352	0.0171997
0.336	0.00366211	0.0170532
0.338	0.00244141	0.0170349
0.34	0.010376	0.0170898
0.342	0.00915527	0.0169678
0.344	0.00427246	0.0169495
0.346	0.00732422	0.0169739
0.348	0.00976563	0.0169983
0.35	0.00671387	0.016925
0.352	0.00854492	0.0168884
0.354	0.00854492	0.016803
0.356	0.00976563	0.0167297
0.358	0.00854492	0.0166077
0.36	0.00854492	0.0164551
0.362	0.0134277	0.0163757
0.364	0.0146484	0.016333
0.366	0.00732422	0.0161865
0.368	0.0170898	0.0160889
0.37	0.0183105	0.0160461
0.372	0.020752	0.0160095
0.374	0.022583	0.0159729
0.376	0.00732422	0.0158081
0.378	0.0183105	0.0157471
0.38	0.020752	0.0156433
0.382	0.0109863	0.015509
0.384	0.00976563	0.0153442
0.386	0.010376	0.0151672
0.388	0.00732422	0.0149475
0.39	0.00671387	0.01474
0.392	0.00793457	0.0145447
0.394	0.00854492	0.0143677
0.396	0.0128174	0.0141907
0.398	0.00793457	0.0140015
0.4	0.010376	0.0138428
0.402	0.0109863	0.0136902
0.404	0.00976563	0.0135376
0.406	0.0115967	0.0134033
0.408	0.0128174	0.013324
0.41	0.00915527	0.0132019
0.412	0.012207	0.0131836
0.414	0.012207	0.0131409
0.416	0.0115967	0.0130188
0.418	0.00976563	0.0129333
0.42	0.0152588	0.0129333
0.422	0.0146484	0.0129272
0.424	0.0146484	0.0128784
0.426	0.010376	0.0128052
0.428	0.0152588	0.0128662
0.43	0.0177002	0.0129089
0.432	0.0244141	0.0130737
0.434	0.0128174	0.0131714
0.436	0.00488281	0.0131653
0.438	0.022583	0.0132385
0.44	0.0189209	0.0133545
0.442	0.0128174	0.0134583
0.444	0.0134277	0.0134827
0.446	0.0140381	0.0134338
0.448	0.0134277	0.0133911
0.45	0.00915527	0.0132874
0.452	0.0128174	0.0132324
0.454	0.0170898	0.0132141
0.456	0.00915527	0.0131042
0.458	0.00854492	0.0129333
0.46	0.0140381	0.0127563
0.462	0.012207	0.0125977
0.464	0.0109863	0.0124268
0.466	0.010376	0.0122864
0.468	0.0109863	0.0121033
0.47	0.0109863	0.0119019
0.472	0.0140381	0.0117737
0.474	0.0128174	0.0116516
0.476	0.00671387	0.0115112
0.478	0.00854492	0.0113892
0.48	0.0170898	0.0113525
0.482	0.00244141	0.011084
0.484	0.00305176	0.0109436
0.486	0.012207	0.0109497
0.488	0.012207	0.0108948
0.49	0.00427246	0.010791
0.492	0.00793457	0.0107727
0.494	0.0109863	0.0107605
0.496	0.0115967	0.0107971
0.498	0.00976563	0.0108582
0.5	0.012207	0.0108521
0.502	0.00732422	0.0108398
0.504	0.00427246	0.0108337
0.506	0.000610352	0.0108032
0.508	0.010376	0.0108521
0.51	0.00366211	0.01073
0.512	0.00488281	0.0106201
0.514	0.00671387	0.0105774
0.516	0.00610352	0.0106201
0.518	0.0201416	0.0106873
0.52	0.0170898	0.0107056
0.522	0.00793457	0.0106934
0.524	0.0128174	0.0107117
0.526	0.0134277	0.0108337
0.528	0.0177002	0.0110046
0.53	0.0158691	0.0111389
0.532	0.00976563	0.0111328
0.534	0.0134277	0.0112061
0.536	0.0158691	0.0113281
0.538	0.0158691	0.0114624
0.54	0.0140381	0.011499
0.542	0.0146484	0.011554
0.544	0.0146484	0.0116577
0.546	0.0115967	0.0117004
0.548	0.00549316	0.0116577
0.55	0.00671387	0.0116577
0.552	0.00915527	0.0116638
0.554	0.00549316	0.0116333
0.556	0.00793457	0.011615
0.558	0.010376	0.0116333
0.56	0.0109863	0.0116577
0.562	0.0158691	0.0116821
0.564	0.0140381	0.011676
0.566	0.00671387	0.0116699
0.568	0.0152588	0.0116516
0.57	0.0164795	0.0116333
0.572	0.0109863	0.0115356
0.574	0.0189209	0.011499
0.576	0.0128174	0.011554
0.578	0.0146484	0.0115173
0.58	0.0177002	0.0114868
0.582	0.0170898	0.0115479
0.584	0.0177002	0.0116272
0.586	0.0158691	0.0116821
0.588	0.0128174	0.0117371
0.59	0.0164795	0.0118347
0.592	0.012207	0.0118774
0.594	0.0115967	0.011908
0.596	0.010376	0.0118835
0.598	0.0140381	0.0119446
0.6	0.0146484	0.0119873
0.602	0.00793457	0.0119568
0.604	0.00915527	0.0119507
0.606	0.00610352	0.0118958
0.608	0.0128174	0.0118958
0.61	0.00976563	0.0119019
0.612	-0.00427246	0.0118225
0.614	-0.00183105	0.0117188
0.616	0.00732422	0.011676
0.618	-0.00244141	0.0116028
0.62	-0.00549316	0.0115051
0.622	-0.00732422	0.0114319
0.624	0	0.0112854
0.626	-0.00610352	0.0112427
0.628	-0.00183105	0.0111084
0.63	-0.00549316	0.0109863
0.632	-0.00427246	0.0107849
0.634	-0.0012207	0.0106689
0.636	0.000610352	0.0106262
0.638	-0.00366211	0.010437
0.64	-0.0115967	0.0103638
0.642	-0.0109863	0.0103455
0.644	-0.00427246	0.0102539
0.646	-0.0134277	0.0102478
0.648	-0.0164795	0.0102783
0.65	-0.0140381	0.0103271
0.652	-0.0134277	0.0103333
0.654	-0.0128174	0.0102905
0.656	-0.0158691	0.0103577
0.658	-0.0134277	0.0104065
0.66	0	0.0102661
0.662	0.00244141	0.0101685
0.664	-0.00183105	0.0100769
0.666	0.00183105	0.00999146
0.668	0.00610352	0.00994263
0.67	0.00610352	0.0098938
0.672	0.00305176	0.00978394
0.674	0.00183105	0.00967407
0.676	-0.0012207	0.00961914
0.678	-0.00305176	0.00956421
0.68	-0.00366211	0.00942993
0.682	-0.00610352	0.00946655
0.684	-0.00854492	0.00952148
0.686	-0.00732422	0.00947266
0.688	-0.00610352	0.00941162
0.69	-0.00976563	0.00946655
0.692	-0.00671387	0.00945435
0.694	0.0012207	0.00935669
0.696	-0.00305176	0.00927124
0.698	-0.0115967	0.00928955
0.7	0.000610352	0.00917358
0.702	-0.00244141	0.00912476
0.704	-0.000610352	0.00908813
0.706	-0.00671387	0.00914917
0.708	-0.00305176	0.00907593
0.71	-0.0109863	0.00914917
0.712	-0.00915527	0.00919189
0.714	-0.0109863	0.00923462
0.716	-0.0109863	0.00928345
0.718	-0.00305176	0.00911255
0.72	-0.0012207	0.00895386
0.722	-0.00732422	0.00894775
0.724	0	0.00881958
0.726	0.00244141	0.00870972
0.728	0.00244141	0.00855713
0.73	0.00488281	0.00844727
0.732	-0.00366211	0.00838623
0.734	0.00244141	0.00827637
0.736	-0.00488281	0.0081665
0.738	0.000610352	0.00801392
0.74	-0.00915527	0.00796509
0.742	-0.00183105	0.00783691
0.744	0.00183105	0.00770874
0.746	-0.00488281	0.0076416
0.748	-0.00549316	0.0076416
0.75	-0.00488281	0.00762329
0.752	0.00732422	0.00760498
0.754	0.00732422	0.00762329
0.756	0.00183105	0.00756226
0.758	0.00183105	0.00747681
0.76	0.00671387	0.00743408
0.762	0.0134277	0.00740967
0.764	0.0109863	0.00737915
0.766	-0.00488281	0.00736084
0.768	0.0012207	0.00722046
0.77	0.00732422	0.00712891
0.772	0.000610352	0.00702515
0.774	-0.00488281	0.00688477
0.776	-0.00549316	0.00681152
0.778	-0.00183105	0.00668335
0.78	-0.00244141	0.00653076
0.782	-0.00427246	0.00640259
0.784	0.000610352	0.00623169
0.786	0.00549316	0.00612793
0.788	0.00244141	0.00602417
0.79	-0.00244141	0.00588379
0.792	-0.00244141	0.00578613
0.794	0.00427246	0.00571289
0.796	0.00610352	0.00567017
0.798	-0.000610352	0.00553589
0.8	0.00305176	0.00541992
0.802	0.00488281	0.0053894
0.804	0.00305176	0.00532837
0.806	-0.00305176	0.00529785
0.808	0.00427246	0.0052124
0.81	0.00244141	0.00513916
0.812	-0.000610352	0.00510254
0.814	0.00305176	0.00511475
0.816	-0.00610352	0.00510254
0.818	-0.00976563	0.00517578
0.82	0.00915527	0.0052124
0.822	0.00610352	0.0052002
0.824	0.000610352	0.0052063
0.826	0.000610352	0.00515137
0.828	0.00366211	0.00516968
0.83	0.0146484	0.00526123
0.832	0.00305176	0.00524902
0.834	0.00183105	0.00525513
0.836	0.00366211	0.00528564
0.838	0.00671387	0.00531616
0.84	0.00976563	0.00529785
0.842	-0.000610352	0.00519409
0.844	0	0.00515137
0.846	0.00610352	0.00507813
0.848	0.00549316	0.00496826
0.85	0.00793457	0.00490723
0.852	0.00488281	0.00482178
0.854	0.012207	0.00481567
0.856	0.0012207	0.00466919
0.858	-0.00671387	0.00460205
0.86	0.00549316	0.00465698
0.862	-0.000610352	0.00463867
0.864	-0.0109863	0.00473022
0.866	-0.00427246	0.00475464
0.868	-0.00732422	0.00476685
0.87	-0.00976563	0.00480347
0.872	-0.012207	0.00489502
0.874	-0.00854492	0.00496216
0.876	-0.00610352	0.00501099
0.878	-0.00183105	0.00499878
0.88	-0.00976563	0.00505981
0.882	-0.00854492	0.00508423
0.884	-0.0128174	0.00512695
0.886	-0.00610352	0.00511475
0.888	-0.00610352	0.00511475
0.89	-0.00671387	0.00508423
0.892	-0.00244141	0.0050415
0.894	0.0012207	0.0050415
0.896	0.00488281	0.00505981
0.898	0.00671387	0.00501099
0.9	0.010376	0.00510864
0.902	0.00366211	0.00512085
0.904	0.00610352	0.00517578
0.906	0.0183105	0.00529175
0.908	0.0012207	0.00527344
0.91	0.0012207	0.00517578
0.912	0.00427246	0.00512695
0.914	0.00427246	0.00505981
0.916	0.00488281	0.00499878
0.918	0.00427246	0.00501099
0.92	0	0.00499878
0.922	0.00610352	0.00498657
0.924	0.00610352	0.00504761
0.926	0	0.00502319
0.928	0	0.00499878
0.93	0.0012207	0.00496216
0.932	0.0109863	0.0050354
0.934	0.00793457	0.00509033
0.936	-0.00610352	0.00510254
0.938	0.00244141	0.00512085
0.94	0.00854492	0.00511475
0.942	0.0128174	0.00522461
0.944	0.010376	0.00531006
0.946	-0.00305176	0.00529175
0.948	0.0128174	0.00536499
0.95	0.010376	0.00541992
0.952	0.00671387	0.00541382
0.954	0.0158691	0.00549927
0.956	0.00976563	0.00557861
0.958	0.012207	0.00568237
0.96	0.0115967	0.0057312
0.962	0.00854492	0.00568237
0.964	0.0152588	0.0057251
0.966	0.0109863	0.00578613
0.968	0.00976563	0.00587158
0.97	0.010376	0.0059021
0.972	0.0115967	0.00601196
0.974	0.00976563	0.00606079
0.976	0.0109863	0.00611572
0.978	0.0146484	0.0062439
0.98	0.0140381	0.00635986
0.982	0.0128174	0.00644531
0.984	0.0177002	0.00661621
0.986	0.010376	0.00666504
0.988	0.0128174	0.0067688
0.99	0.0109863	0.00685425
0.992	0.00915527	0.00692139
0.994	0.00488281	0.00692749
0.996	0.010376	0.00697021
0.998	0.00366211	0.00700073
1	-0.00366211	0.00700684
1.002	0.00183105	0.00697632
1.004	0.00732422	0.00701904
1.006	0.00427246	0.00703125
1.008	0.00366211	0.00702515
1.01	0.00244141	0.00702515
1.012	0.00610352	0.00708008
1.014	0.012207	0.00717163
1.016	0.0012207	0.0071228
1.018	0.00183105	0.00704346
1.02	0.0109863	0.00706177
1.022	0.00549316	0.00705566
1.024	0.00488281	0.00709839
1.026	0.00732422	0.00716553
1.028	0.00854492	0.00721436
1.03	0.00732422	0.00714111
1.032	0.0109863	0.00722046
1.034	0.0109863	0.00731201
1.036	0.012207	0.00739746
1.038	0.012207	0.00745239
1.04	0.00854492	0.00744019
1.042	0.00915527	0.00752563
1.044	0.0115967	0.0076416
1.046	0.0115967	0.00769653
1.048	0.00610352	0.00770264
1.05	0.0140381	0.00776367
1.052	0.00305176	0.00774536
1.054	0.00427246	0.00766602
1.056	0.0201416	0.00785522
1.058	0.0109863	0.00789795
1.06	0.00427246	0.00788574
1.062	0.0140381	0.00802002
1.064	0.0109863	0.00802002
1.066	0.0109863	0.00808716
1.068	0.00854492	0.00809937
1.07	0.00671387	0.00806885
1.072	0.00549316	0.00800171
1.074	0.00671387	0.0079834
1.076	0.00244141	0.00794678
1.078	0.00305176	0.00795898
1.08	0.00427246	0.00790405
1.082	0.00244141	0.00784302
1.084	0.00427246	0.00775757
1.086	0.000610352	0.00770264
1.088	0.00610352	0.00770264
1.09	0.0012207	0.00764771
1.092	0.00183105	0.0076416
1.094	0.0134277	0.00776367
1.096	0	0.00771484
1.098	-0.00976563	0.00774536
1.1	0.0012207	0.00765381
1.102	0.00671387	0.00768433
1.104	-0.00366211	0.00765991
1.106	0	0.00747681
1.108	-0.000610352	0.0074707
1.11	0.000610352	0.0074646
1.112	-0.000610352	0.00742798
1.114	0.00610352	0.00744629
1.116	0.00915527	0.00748901
1.118	0.00915527	0.00753784
1.12	0.00854492	0.00762329
1.122	0.00915527	0.00765381
1.124	0.010376	0.00769653
1.126	0.00854492	0.00778198
1.128	0.00732422	0.00785522
1.13	0.00549316	0.00789795
1.132	0.00427246	0.00783081
1.134	-0.000610352	0.00775757
1.136	-0.00305176	0.00772705
1.138	-0.00183105	0.00772095
1.14	-0.00366211	0.00767212
1.142	0.000610352	0.00755005
1.144	0.00976563	0.00754395
1.146	0	0.00751343
1.148	-0.00915527	0.00747681
1.15	0.010376	0.00747681
1.152	0.0164795	0.00757446
1.154	0.00793457	0.00749512
1.156	0.00671387	0.0074646
1.158	0.00915527	0.00743408
1.16	0.00366211	0.00735474
1.162	0.00915527	0.00736084
1.164	0.0140381	0.00734863
1.166	0.00976563	0.00733643
1.168	0.0109863	0.00734863
1.17	0.00488281	0.0072937
1.172	0.010376	0.00728149
1.174	0.0115967	0.0072998
1.176	0.00976563	0.0072876
1.178	0.0177002	0.00731812
1.18	0.0146484	0.00732422
1.182	0.0128174	0.00732422
1.184	0.0146484	0.0072937
1.186	0.0164795	0.00735474
1.188	0.0164795	0.00739136
1.19	0.0183105	0.0074646
1.192	0.0244141	0.00761719
1.194	0.0286865	0.00785522
1.196	0.00366211	0.00778809
1.198	0.0140381	0.00789185
1.2	0.0213623	0.00806885
1.202	0.0109863	0.0081604
1.204	0.00671387	0.0081543
1.206	0.00549316	0.0081665
1.208	0.00488281	0.00817871
1.21	0.00732422	0.00822754
1.212	0.0012207	0.00817871
1.214	0.0109863	0.0081665
1.216	0.0164795	0.00831909
1.218	0.0109863	0.00841064
1.22	0.0219727	0.00852051
1.222	0.0170898	0.00863647
1.224	0.00793457	0.00866699
1.226	0.020752	0.00880127
1.228	0.0183105	0.00889893
1.23	0.010376	0.00892944
1.232	0.00610352	0.00888062
1.234	0.00427246	0.00881348
1.236	0.00427246	0.00873413
1.238	0.00244141	0.00863647
1.24	0	0.00855103
1.242	0.000610352	0.00846558
1.244	0.000610352	0.00835571
1.246	0.00183105	0.00825806
1.248	0.00610352	0.00825806
1.25	0.00610352	0.00817871
1.252	-0.00183105	0.0081665
1.254	0.00183105	0.00814209
1.256	0.010376	0.00804443
1.258	0.00183105	0.00795288
1.26	0.00671387	0.00797729
1.262	0.00366211	0.00787354
1.264	0.00488281	0.0078125
1.266	0.012207	0.00782471
1.268	0.00488281	0.00778809
1.27	0.0128174	0.00784912
1.272	0.010376	0.00789795
1.274	0.0146484	0.00797729
1.276	0.00854492	0.00803833
1.278	0.0109863	0.00811768
1.28	0.0109863	0.00818481
1.282	0.0115967	0.00827637
1.284	0.0109863	0.00834351
1.286	0.00671387	0.00840454
1.288	0.00488281	0.00839233
1.29	0.0109863	0.00848999
1.292	0.00366211	0.0085083
1.294	0.0012207	0.00838623
1.296	0.00976563	0.00848389
1.298	0.00244141	0.00841064
1.3	-0.00732422	0.00847168
1.302	0.00549316	0.00845947
1.304	0.00854492	0.0085083
1.306	0.00305176	0.00853882
1.308	-0.0012207	0.00854492
1.31	0.00610352	0.00859985
1.312	0.00305176	0.00862427
1.314	0	0.00856323
1.316	0.00488281	0.00852051
1.318	0.00610352	0.00848999
1.32	0.000610352	0.00841064
1.322	0.000610352	0.0083252
1.324	0.000610352	0.00822754
1.326	-0.0012207	0.0081543
1.328	0.00305176	0.00811157
1.33	0.00183105	0.00807495
1.332	-0.00244141	0.00805664
1.334	-0.00244141	0.00807495
1.336	-0.00366211	0.00808105
1.338	-0.00549316	0.00811768
1.34	-0.010376	0.00818481
1.342	0.00244141	0.00820313
1.344	-0.012207	0.00822754
1.346	-0.00610352	0.00828857
1.348	-0.00427246	0.00823975
1.35	-0.00366211	0.00817261
1.352	-0.00366211	0.00804443
1.354	-0.00610352	0.00802612
1.356	-0.0012207	0.00797119
1.358	-0.00610352	0.00794067
1.36	-0.00427246	0.00794678
1.362	-0.00244141	0.00787964
1.364	-0.00305176	0.00776978
1.366	-0.00305176	0.00770264
1.368	0.00488281	0.0076416
1.37	-0.00549316	0.00764771
1.372	-0.00305176	0.00757446
1.374	0.00244141	0.00748291
1.376	-0.00427246	0.00742798
1.378	-0.00610352	0.00731201
1.38	-0.00366211	0.00720215
1.382	-0.00671387	0.00714111
1.384	-0.00488281	0.00704346
1.386	-0.00366211	0.00691528
1.388	-0.00488281	0.00679932
1.39	-0.00183105	0.00663452
1.392	0.00366211	0.006427
1.394	0.00549316	0.00619507
1.396	-0.00305176	0.00618896
1.398	-0.00976563	0.00614624
1.4	0.00549316	0.00598755
1.402	-0.00183105	0.005896
1.404	-0.00854492	0.00591431
1.406	-0.00976563	0.00595703
1.408	-0.00610352	0.00596924
1.41	-0.00732422	0.00596924
1.412	-0.00854492	0.00604248
1.414	-0.00610352	0.00599365
1.416	-0.00854492	0.00591431
1.418	-0.00366211	0.00584106
1.42	-0.00610352	0.00568237
1.422	-0.0152588	0.00566406
1.424	-0.00549316	0.00563965
1.426	-0.00976563	0.00552979
1.428	-0.010376	0.00545044
1.43	-0.012207	0.00546875
1.432	-0.0177002	0.00558472
1.434	-0.012207	0.00566406
1.436	-0.010376	0.0057251
1.438	-0.0128174	0.00582886
1.44	-0.00793457	0.0059082
1.442	-0.00915527	0.00599365
1.444	-0.00732422	0.00606079
1.446	-0.00915527	0.00613403
1.448	-0.00976563	0.00617065
1.45	-0.00488281	0.00615845
1.452	-0.00976563	0.00623779
1.454	-0.0128174	0.00634766
1.456	-0.00793457	0.00632324
1.458	-0.00549316	0.00635986
1.46	-0.00793457	0.00637207
1.462	0.000610352	0.00634155
1.464	0	0.00629272
1.466	-0.0109863	0.00628052
1.468	-0.00976563	0.00632935
1.47	0.00732422	0.00627441
1.472	0.00183105	0.00618896
1.474	-0.00976563	0.00614014
1.476	-0.00610352	0.00611572
1.478	-0.00305176	0.00603638
1.48	-0.00610352	0.00598755
1.482	-0.00244141	0.005896
1.484	0.00183105	0.00580444
1.486	-0.00244141	0.00576172
1.488	-0.00366211	0.00574951
1.49	-0.012207	0.00576172
1.492	-0.0109863	0.00583496
1.494	-0.0158691	0.00598145
1.496	-0.010376	0.00598755
1.498	-0.0158691	0.00612183
1.5	-0.0170898	0.00621948
1.502	-0.0164795	0.00632935
1.504	-0.0134277	0.00637817
1.506	-0.00793457	0.006427
1.508	0	0.00641479
1.51	-0.00549316	0.00640869
1.512	-0.010376	0.00648193
1.514	0.000610352	0.00648804
1.516	-0.00183105	0.00645752
1.518	-0.00549316	0.00645142
1.52	-0.00488281	0.00649414
1.522	-0.0152588	0.00664063
1.524	-0.00976563	0.00673218
1.526	-0.00244141	0.00674438
1.528	-0.00305176	0.00674438
1.53	-0.00366211	0.0067627
1.532	0.0152588	0.00689087
1.534	-0.010376	0.00697021
1.536	-0.00183105	0.0069519
1.538	-0.000610352	0.00690308
1.54	0	0.00679932
1.542	-0.00427246	0.00681763
1.544	-0.00854492	0.00678101
1.546	-0.012207	0.00684204
1.548	-0.00671387	0.00686646
1.55	-0.00610352	0.00689087
1.552	0.00549316	0.00690918
1.554	0.00854492	0.00693359
1.556	0.0115967	0.00703735
1.558	0.00549316	0.00703125
1.56	0.00244141	0.00701294
1.562	0.0213623	0.00720215
1.564	0.0170898	0.00734253
1.566	0.0128174	0.00744019
1.568	-0.00305176	0.00742187
1.57	-0.00732422	0.00744019
1.572	0.0146484	0.00755615
1.574	0.0128174	0.00765991
1.576	-0.00732422	0.00769043
1.578	-0.00976563	0.00772705
1.58	0.00488281	0.00773926
1.582	-0.0140381	0.0078125
1.584	-0.0158691	0.00792236
1.586	-0.00549316	0.00794067
1.588	0.00366211	0.00792847
1.59	-0.00427246	0.00795288
1.592	-0.0152588	0.00806885
1.594	-0.00183105	0.00803223
1.596	0.00183105	0.00802002
1.598	0.0012207	0.00793457
1.6	0.00732422	0.00795288
1.602	0.00732422	0.00800781
1.604	-0.0128174	0.00805054
1.606	0.00488281	0.00800171
1.608	0.00366211	0.00797729
1.61	-0.00183105	0.00792236
1.612	-0.00244141	0.00786133
1.614	-0.0012207	0.0078125
1.616	0.00244141	0.00775146
1.618	0	0.00771484
1.62	-0.0164795	0.0078186
1.622	-0.00305176	0.00769653
1.624	0.0012207	0.00765381
1.626	0.00671387	0.00762329
1.628	-0.00793457	0.00759888
1.63	-0.0146484	0.00762329
1.632	0.00183105	0.0074646
1.634	-0.00305176	0.00737305
1.636	0.0012207	0.00728149
1.638	0.00305176	0.00718384
1.64	-0.00183105	0.0071228
1.642	-0.00305176	0.00706177
1.644	0	0.00698853
1.646	0.00549316	0.0069519
1.648	0.00366211	0.00689087
1.65	0.00244141	0.00686646
1.652	0.00183105	0.00678711
1.654	0.00366211	0.00669556
1.656	0.00305176	0.00664673
1.658	0	0.0065918
1.66	0.00244141	0.00653687
1.662	0.00183105	0.00654907
1.664	-0.00183105	0.00656738
1.666	-0.00305176	0.00648804
1.668	-0.00488281	0.00643921
1.67	0.000610352	0.00637207
1.672	0.0012207	0.00636597
1.674	0.000610352	0.00627441
1.676	0.0012207	0.00622559
1.678	0.00549316	0.00625
1.68	0.00671387	0.0062561
1.682	0.00366211	0.00626831
1.684	0.00671387	0.00631714
1.686	0.00488281	0.00634155
1.688	0.000610352	0.00631104
1.69	0.00183105	0.00620728
1.692	0.000610352	0.00610352
1.694	-0.00244141	0.00596924
1.696	-0.00183105	0.00588379
1.698	-0.00915527	0.00581665
1.7	0.00427246	0.00568848
1.702	0.0012207	0.00553589
1.704	0.00610352	0.00546265
1.706	-0.00305176	0.00541382
1.708	-0.010376	0.00551758
1.71	0	0.00546265
1.712	0	0.00535889
1.714	-0.0012207	0.00536499
1.716	-0.00976563	0.00544434
1.718	-0.00671387	0.00545654
1.72	-0.00183105	0.00542603
1.722	-0.00549316	0.00532837
1.724	-0.00610352	0.00529175
1.726	-0.00427246	0.00531006
1.728	0.00488281	0.00532837
1.73	-0.00244141	0.00531616
1.732	-0.00549316	0.00521851
1.734	0	0.00511475
1.736	0.000610352	0.00510254
1.738	-0.00793457	0.00517578
1.74	0.000610352	0.00518188
1.742	0.00549316	0.00519409
1.744	0.00793457	0.00518799
1.746	-0.00427246	0.00510864
1.748	-0.00671387	0.00510864
1.75	0.00183105	0.00506592
1.752	0.00305176	0.0050415
1.754	-0.00732422	0.0050293
1.756	-0.00305176	0.00494385
1.758	-0.00488281	0.00493774
1.76	-0.00366211	0.00494995
1.762	-0.00366211	0.00477295
1.764	-0.000610352	0.00460815
1.766	0	0.00447998
1.768	0.00183105	0.00446777
1.77	0.00244141	0.00441895
1.772	-0.00244141	0.00429688
1.774	-0.00366211	0.00420532
1.776	-0.00732422	0.00420532
1.778	-0.00610352	0.0041687
1.78	-0.00244141	0.00414429
1.782	-0.00549316	0.00405884
1.784	-0.00793457	0.00397949
1.786	-0.00732422	0.0039978
1.788	-0.00854492	0.00404663
1.79	-0.0012207	0.00401611
1.792	-0.000610352	0.00386963
1.794	-0.00915527	0.00394287
1.796	-0.00976563	0.00402222
1.798	-0.00427246	0.00405273
1.8	-0.0195313	0.0041748
1.802	-0.0189209	0.00429077
1.804	-0.00793457	0.00424194
1.806	0.00366211	0.00422974
1.808	-0.0189209	0.00438232
1.81	-0.022583	0.00458984
1.812	-0.00610352	0.00462646
1.814	-0.00549316	0.00466919
1.816	-0.00427246	0.0046875
1.818	-0.00793457	0.00476685
1.82	-0.00854492	0.0046875
1.822	-0.00915527	0.00474854
1.824	-0.0177002	0.00491333
1.826	-0.00915527	0.00493774
1.828	-0.00854492	0.00494385
1.83	-0.0164795	0.00496216
1.832	-0.0164795	0.00510864
1.834	-0.0134277	0.0052124
1.836	-0.0140381	0.00534058
1.838	-0.0170898	0.00548096
1.84	-0.0128174	0.00559082
1.842	-0.00366211	0.00559692
1.844	-0.0134277	0.0057312
1.846	-0.0177002	0.00585327
1.848	-0.00976563	0.00591431
1.85	-0.00976563	0.00598755
1.852	-0.0146484	0.00611572
1.854	-0.0201416	0.00628052
1.856	-0.0189209	0.00643921
1.858	-0.0152588	0.0065918
1.86	-0.0213623	0.00678101
1.862	-0.0189209	0.0069519
1.864	-0.0158691	0.00709229
1.866	-0.0128174	0.00718994
1.868	-0.0115967	0.00725708
1.87	-0.0177002	0.00742798
1.872	-0.00427246	0.0074585
1.874	-0.00854492	0.00753784
1.876	-0.00671387	0.00759277
1.878	-0.00549316	0.00759277
1.88	-0.00488281	0.00757446
1.882	-0.00549316	0.00759277
1.884	-0.0109863	0.0076355
1.886	-0.0158691	0.00774536
1.888	-0.00610352	0.00780029
1.89	-0.00976563	0.00787964
1.892	-0.0170898	0.00804443
1.894	-0.0183105	0.00820313
1.896	-0.0140381	0.0083252
1.898	-0.0170898	0.00840454
1.9	-0.00183105	0.00838013
1.902	-0.00732422	0.00844116
1.904	-0.00854492	0.00846558
1.906	-0.0164795	0.00859985
1.908	-0.00549316	0.00855103
1.91	-0.00366211	0.00858765
1.912	-0.00915527	0.0086792
1.914	-0.0115967	0.00878296
1.916	-0.00793457	0.00876465
1.918	-0.00671387	0.00876465
1.92	-0.00305176	0.00877686
1.922	-0.00366211	0.00875854
1.924	-0.00793457	0.00877686
1.926	0.00549316	0.00878906
1.928	0.00427246	0.00878296
1.93	0.000610352	0.00876465
1.932	-0.00854492	0.00879517
1.934	-0.00793457	0.00887451
1.936	0.00610352	0.00892944
1.938	-0.00366211	0.00888672
1.94	-0.00793457	0.00895996
1.942	-0.00732422	0.00897827
1.944	-0.00427246	0.00894165
1.946	-0.00305176	0.00892944
1.948	-0.00610352	0.00892334
1.95	-0.00915527	0.00899658
1.952	-0.00183105	0.00898438
1.954	-0.000610352	0.00891724
1.956	-0.0177002	0.00906372
1.958	-0.00976563	0.00911255
1.96	-0.00366211	0.00911255
1.962	-0.00549316	0.00913086
1.964	-0.00793457	0.0092041
1.966	-0.00488281	0.00925293
1.968	-0.00488281	0.00928345
1.97	-0.00915527	0.00935059
1.972	-0.00671387	0.00939331
1.974	-0.00305176	0.00938721
1.976	-0.00488281	0.00936279
1.978	-0.00732422	0.009375
1.98	-0.00793457	0.00942993
1.982	-0.00976563	0.00947266
1.984	-0.00915527	0.00948486
1.986	-0.0109863	0.00952148
1.988	-0.012207	0.00955811
1.99	-0.00976563	0.00964355
1.992	-0.010376	0.00974121
1.994	-0.0115967	0.00976563
1.996	-0.0146484	0.00981445
1.998	-0.0152588	0.00992432
2	-0.00854492	0.00981445
2.002	-0.010376	0.009729
2.004	-0.0152588	0.00980225
2.006	-0.0128174	0.0098938
2.008	-0.0128174	0.00983276
2.01	-0.010376	0.00971069
2.012	-0.00915527	0.00974121
2.014	-0.0140381	0.00982666
2.016	-0.00915527	0.00987549
2.018	-0.00976563	0.0098938
2.02	-0.0152588	0.00996094
2.022	-0.00366211	0.00990601
2.024	-0.00488281	0.00977783
2.026	-0.00305176	0.0097168
2.028	0.00427246	0.00967407
2.03	-0.00732422	0.00958252
2.032	-0.0128174	0.0095459
2.034	0.00305176	0.00944214
2.036	-0.00305176	0.00933228
2.038	-0.00793457	0.00924072
2.04	-0.0109863	0.00922241
2.042	-0.00915527	0.00927734
2.044	-0.0134277	0.00927734
2.046	-0.0115967	0.00921631
2.048	-0.012207	0.00924072
2.05	-0.012207	0.00926514
2.052	-0.0146484	0.00926514
2.054	-0.022583	0.00928955
2.056	-0.00610352	0.00916138
2.058	-0.0195313	0.0092041
2.06	-0.0292969	0.00928345
2.062	-0.0164795	0.00925903
2.064	-0.0158691	0.00925903
2.066	-0.0164795	0.00929565
2.068	-0.0170898	0.00935059
2.07	-0.0195313	0.0093689
2.072	-0.012207	0.00944824
2.074	-0.00793457	0.00944214
2.076	-0.00366211	0.00941162
2.078	-0.00732422	0.00942993
2.08	-0.0109863	0.00949097
2.082	-0.00549316	0.00949097
2.084	-0.0146484	0.00952759
2.086	-0.0164795	0.00953369
2.088	-0.00854492	0.00955811
2.09	-0.0213623	0.00967407
2.092	-0.0231934	0.00973511
2.094	-0.0177002	0.009729
2.096	-0.0195313	0.00978394
2.098	-0.0170898	0.00978394
2.1	-0.0146484	0.00991211
2.102	-0.0170898	0.0100098
2.104	-0.0170898	0.0100952
2.106	-0.0170898	0.0101013
2.108	-0.0219727	0.0102661
2.11	-0.0170898	0.0104004
2.112	-0.0158691	0.0104675
2.114	-0.0177002	0.0105286
2.116	-0.0140381	0.0105896
2.118	-0.0177002	0.0106995
2.12	-0.0152588	0.0108215
2.122	-0.0152588	0.0109375
2.124	-0.0152588	0.0110107
2.126	-0.0134277	0.0110901
2.128	-0.0195313	0.0112427
2.13	-0.0146484	0.0113831
2.132	-0.0146484	0.0114441
2.134	-0.0158691	0.0115234
2.136	-0.0128174	0.0115906
2.138	-0.010376	0.0116577
2.14	-0.010376	0.0116821
2.142	-0.0109863	0.0117188
2.144	-0.00915527	0.0117676
2.146	-0.00915527	0.0118286
2.148	-0.0115967	0.0118835
2.15	-0.012207	0.0119141
2.152	-0.0109863	0.0120056
2.154	-0.010376	0.0121033
2.156	-0.010376	0.01203
2.158	-0.0146484	0.0120789
2.16	-0.0170898	0.0122131
2.162	-0.010376	0.012262
2.164	-0.0170898	0.0123535
2.166	-0.0140381	0.0124451
2.168	0.0012207	0.0124084
2.17	-0.00671387	0.012384
2.172	-0.00671387	0.012384
2.174	-0.00244141	0.0123779
2.176	0.00183105	0.0123474
2.178	0.00488281	0.012323
2.18	0.00732422	0.0123169
2.182	0.000610352	0.0122253
2.184	0.00488281	0.0121826
2.186	0.00244141	0.0120972
2.188	-0.00915527	0.0120667
2.19	-0.00305176	0.0119995
2.192	-0.00183105	0.0119141
2.194	-0.00671387	0.0118652
2.196	-0.0183105	0.0119019
2.198	-0.00610352	0.0118103
2.2	-0.0146484	0.0118713
2.202	-0.0152588	0.0119202
2.204	-0.0158691	0.0119263
2.206	-0.0140381	0.0119385
2.208	-0.0140381	0.0119507
2.21	-0.0158691	0.0120056
2.212	-0.0158691	0.0120728
2.214	-0.0164795	0.0120972
2.216	-0.0183105	0.0121887
2.218	-0.0146484	0.0122375
2.22	-0.0152588	0.0122375
2.222	-0.0152588	0.0123535
2.224	-0.0158691	0.0124634
2.226	-0.012207	0.0125549
2.228	-0.00549316	0.0125671
2.23	-0.0158691	0.0126526
2.232	-0.0238037	0.0127625
2.234	-0.0158691	0.0128906
2.236	-0.00976563	0.0129578
2.238	-0.010376	0.0129822
2.24	-0.0183105	0.0130554
2.242	-0.0183105	0.013147
2.244	-0.0146484	0.0131592
2.246	-0.012207	0.0131653
2.248	-0.0140381	0.0131836
2.25	-0.0128174	0.0131897
2.252	-0.0109863	0.0131531
2.254	-0.012207	0.0130493
2.256	-0.0152588	0.0131409
2.258	-0.0128174	0.0130737
2.26	-0.0115967	0.0128967
2.262	-0.0134277	0.0128662
2.264	-0.0146484	0.012854
2.266	-0.00793457	0.0127686
2.268	-0.0109863	0.0127075
2.27	-0.00854492	0.0125977
2.272	-0.00976563	0.0125732
2.274	-0.0201416	0.0126953
2.276	-0.010376	0.0127625
2.278	-0.00549316	0.0127441
2.28	-0.012207	0.0127563
2.282	-0.0140381	0.0128418
2.284	-0.010376	0.0127991
2.286	-0.010376	0.012738
2.288	-0.010376	0.0127563
2.29	-0.010376	0.0126465
2.292	-0.00854492	0.0125
2.294	-0.0109863	0.0124329
2.296	-0.0109863	0.0123474
2.298	-0.0109863	0.0122864
2.3	-0.012207	0.012262
2.302	-0.0134277	0.0122253
2.304	-0.022583	0.0122803
2.306	-0.0164795	0.0122742
2.308	-0.0170898	0.0122253
2.31	-0.0177002	0.0122314
2.312	-0.0170898	0.0122437
2.314	-0.0146484	0.0122131
2.316	-0.012207	0.0121948
2.318	-0.0109863	0.0121277
2.32	-0.00793457	0.0120544
2.322	-0.00244141	0.0119263
2.324	-0.00427246	0.0118164
2.326	-0.00610352	0.0117432
2.328	-0.00183105	0.0115662
2.33	-0.00549316	0.0114746
2.332	-0.00610352	0.0113892
2.334	-0.00549316	0.0112854
2.336	-0.00610352	0.0112183
2.338	-0.00671387	0.0111816
2.34	-0.00610352	0.0111389
2.342	-0.00976563	0.0111267
2.344	-0.00671387	0.0111023
2.346	-0.00183105	0.0110291
2.348	-0.00915527	0.0110046
2.35	-0.00915527	0.0109741
2.352	-0.0164795	0.0110291
2.354	-0.00549316	0.0109802
2.356	-0.00366211	0.0109131
2.358	-0.0146484	0.0109131
2.36	-0.0128174	0.0108704
2.362	-0.012207	0.0108887
2.364	-0.00793457	0.0107971
2.366	-0.00305176	0.0106873
2.368	0.0012207	0.0106873
2.37	-0.0134277	0.0107544
2.372	-0.00732422	0.0107605
2.374	-0.00488281	0.0107849
2.376	-0.00488281	0.0108154
2.378	-0.00915527	0.0108582
2.38	-0.012207	0.010907
2.382	-0.0177002	0.0110779
2.384	-0.012207	0.0111511
2.386	-0.0115967	0.0112427
2.388	-0.0177002	0.0113281
2.39	-0.0146484	0.0114441
2.392	-0.00976563	0.0115234
2.394	-0.0109863	0.0115662
2.396	-0.0152588	0.0115356
2.398	-0.00976563	0.0115723
2.4	-0.00976563	0.0115234
2.402	-0.010376	0.0114746
2.404	-0.0158691	0.0114746
2.406	-0.00915527	0.0114258
2.408	-0.00671387	0.0113525
2.41	-0.0140381	0.0113342
2.412	-0.0183105	0.0113586
2.414	-0.0109863	0.0113037
2.416	-0.0146484	0.0112671
2.418	-0.0140381	0.011261
2.42	-0.0146484	0.0112549
2.422	-0.00915527	0.0111938
2.424	-0.0238037	0.0112732
2.426	-0.0152588	0.0113037
2.428	-0.0158691	0.0114075
2.43	-0.0170898	0.0114197
2.432	-0.020752	0.0113892
2.434	-0.0183105	0.0114136
2.436	-0.0177002	0.0114929
2.438	-0.0177002	0.0115662
2.44	-0.0164795	0.0115479
2.442	-0.00915527	0.0114563
2.444	-0.0158691	0.0114685
2.446	-0.0177002	0.0115234
2.448	-0.00183105	0.0114014
2.45	-0.00427246	0.0113159
2.452	-0.00793457	0.0112854
2.454	-0.00488281	0.0112122
2.456	0.00244141	0.011084
2.458	-0.00671387	0.0110229
2.46	0.00183105	0.0109253
2.462	0.00183105	0.0108093
2.464	-0.0170898	0.0108337
2.466	-0.0189209	0.0109436
2.468	-0.0115967	0.0109497
2.47	-0.022583	0.0110901
2.472	-0.0274658	0.0112671
2.474	-0.0286865	0.0113525
2.476	-0.0256348	0.0115051
2.478	-0.0231934	0.0116821
2.48	-0.0213623	0.0117737
2.482	-0.0189209	0.0118225
2.484	-0.020752	0.0119263
2.486	-0.0201416	0.0120239
2.488	-0.0128174	0.0120483
2.49	-0.0152588	0.0120972
2.492	-0.0213623	0.0122253
2.494	-0.0183105	0.0122986
2.496	-0.0170898	0.0123596
2.498	-0.0201416	0.0124512
2.5	-0.0177002	0.0125061
2.502	-0.00549316	0.0124268
2.504	-0.0128174	0.0123291
2.506	-0.0140381	0.0123047
2.508	-0.012207	0.0122559
2.51	-0.0109863	0.0121887
2.512	-0.00976563	0.0121155
2.514	-0.012207	0.0120911
2.516	-0.00976563	0.0120667
2.518	-0.0140381	0.0120972
2.52	-0.0189209	0.012207
2.522	-0.0177002	0.0123596
2.524	-0.0183105	0.0125
2.526	-0.0158691	0.0125977
2.528	-0.0170898	0.0127502
2.53	-0.0195313	0.0128906
2.532	-0.00732422	0.0129028
2.534	-0.0146484	0.0129944
2.536	-0.0146484	0.0130798
2.538	-0.00732422	0.0130859
2.54	-0.00488281	0.0130737
2.542	-0.00610352	0.0130371
2.544	-0.00793457	0.0130493
2.546	-0.00610352	0.013092
2.548	-0.0115967	0.0131165
2.55	-0.0109863	0.0131348
2.552	-0.00854492	0.0130554
2.554	-0.00915527	0.013092
2.556	-0.00732422	0.0131287
2.558	-0.0280762	0.0132629
2.56	-0.0195313	0.0133301
2.562	-0.00610352	0.013269
2.564	-0.0183105	0.0133728
2.566	-0.0231934	0.0135742
2.568	-0.0183105	0.0137451
2.57	-0.0195313	0.0138062
2.572	-0.0170898	0.0139038
2.574	-0.012207	0.0139771
2.576	-0.0152588	0.0140808
2.578	-0.00488281	0.0140381
2.58	-0.0170898	0.0140869
2.582	-0.0201416	0.0141113
2.584	-0.020752	0.0141968
2.586	-0.0195313	0.0142761
2.588	-0.0219727	0.0143188
2.59	-0.0292969	0.0144653
2.592	-0.0286865	0.0146545
2.594	-0.0274658	0.0148193
2.596	-0.022583	0.0148926
2.598	-0.0238037	0.015033
2.6	-0.0189209	0.0151245
2.602	-0.0177002	0.0151978
2.604	-0.0219727	0.0152588
2.606	-0.0170898	0.0153381
2.608	-0.0152588	0.0154236
2.61	-0.0152588	0.0154358
2.612	-0.0189209	0.0154419
2.614	-0.0134277	0.0154663
2.616	-0.0128174	0.015448
2.618	-0.0109863	0.0154175
2.62	-0.0134277	0.0154053
2.622	-0.00976563	0.0154114
2.624	-0.00915527	0.0152649
2.626	-0.012207	0.0152344
2.628	-0.0128174	0.0152039
2.63	-0.0115967	0.0151489
2.632	-0.012207	0.0150635
2.634	-0.0164795	0.0150452
2.636	-0.0164795	0.015033
2.638	-0.00976563	0.0149536
2.64	-0.00671387	0.014856
2.642	-0.0115967	0.0148804
2.644	-0.00732422	0.0147949
2.646	-0.00610352	0.014679
2.648	0.0177002	0.0148376
2.65	0.00549316	0.0148499
2.652	-0.0341797	0.0151123
2.654	0.0146484	0.01521
2.656	0.0183105	0.0153687
2.658	0.00976563	0.0153992
2.66	-0.0177002	0.0155579
2.662	-0.0201416	0.015741
2.664	-0.00854492	0.0156555
2.666	-0.0012207	0.0154785
2.668	-0.012207	0.0154846
2.67	0.0109863	0.0153687
2.672	-0.00793457	0.0151733
2.674	-0.0317383	0.0152039
2.676	-0.0372314	0.0153198
2.678	-0.0115967	0.0152039
2.68	-0.00427246	0.015033
2.682	-0.0256348	0.0151001
2.684	-0.0402832	0.0152954
2.686	-0.0439453	0.0155334
2.688	-0.0292969	0.0156982
2.69	-0.020752	0.0157532
2.692	-0.0213623	0.0157532
2.694	-0.022583	0.0157959
2.696	-0.022583	0.0158508
2.698	-0.0213623	0.015863
2.7	-0.0146484	0.0158325
2.702	-0.0231934	0.0160095
2.704	-0.0170898	0.0160522
2.706	-0.0213623	0.0161255
2.708	-0.00549316	0.0160583
2.71	0.020752	0.016156
2.712	0.00549316	0.0161133
2.714	0.00488281	0.01604
2.716	0.000610352	0.0159485
2.718	0.0201416	0.0160095
2.72	0.0280762	0.0161011
2.722	0.00244141	0.0159485
2.724	-0.0146484	0.0159119
2.726	-0.0012207	0.0157654
2.728	-0.00915527	0.015686
2.73	-0.0213623	0.0157043
2.732	-0.0152588	0.0157837
2.734	-0.0335693	0.0159729
2.736	-0.00854492	0.0159119
2.738	0.00366211	0.0158752
2.74	-0.012207	0.0159485
2.742	-0.010376	0.0159912
2.744	-0.00854492	0.0159973
2.746	-0.0494385	0.0164307
2.748	0.00305176	0.0163452
2.75	-0.000610352	0.0162415
2.752	-0.0134277	0.0162903
2.754	-0.0390625	0.0165894
2.756	-0.0219727	0.0167358
2.758	-0.0317383	0.0167725
2.76	-0.010376	0.0166809
2.762	-0.0115967	0.0167358
2.764	-0.0170898	0.0167236
2.766	-0.0201416	0.0166931
2.768	-0.00305176	0.0165405
2.77	-0.020752	0.0165527
2.772	-0.0012207	0.016394
2.774	-0.010376	0.0163757
2.776	-0.00244141	0.0162476
2.778	0.00671387	0.0162659
2.78	-0.00244141	0.0161194
2.782	-0.0012207	0.0159302
2.784	0.00183105	0.015741
2.786	0	0.0155457
2.788	0.000610352	0.015332
2.79	0.0164795	0.0152039
2.792	-0.00854492	0.0150024
2.794	-0.012207	0.0148499
2.796	-0.0189209	0.0148132
2.798	-0.0213623	0.0147888
2.8	-0.020752	0.0148071
2.802	-0.0305176	0.0149353
2.804	-0.0402832	0.0151184
2.806	-0.0457764	0.0154053
2.808	-0.0231934	0.0154846
2.81	-0.0335693	0.0156677
2.812	-0.0311279	0.0157898
2.814	-0.0311279	0.0159668
2.816	-0.00549316	0.0158936
2.818	0.00610352	0.0158447
2.82	-0.020752	0.015918
2.822	-0.0134277	0.0159546
2.824	-0.00244141	0.0158875
2.826	0.0152588	0.015918
2.828	-0.0012207	0.015802
2.83	0.0170898	0.0158569
2.832	0.0170898	0.0159058
2.834	-0.0128174	0.0158691
2.836	-0.00976563	0.015802
2.838	-0.00915527	0.0157959
2.84	-0.00854492	0.0158142
2.842	-0.00549316	0.0157532
2.844	-0.012207	0.015802
2.846	-0.0384521	0.0161255
2.848	-0.0146484	0.016095
2.85	-0.0140381	0.0161804
2.852	0.00427246	0.0158813
2.854	0.0250244	0.0159851
2.856	-0.0500488	0.0163025
2.858	-0.00915527	0.0162964
2.86	0.0177002	0.0162964
2.862	0.0012207	0.0161072
2.864	0.0128174	0.0161499
2.866	-0.0012207	0.0161499
2.868	-0.0250244	0.0162781
2.87	-0.0860596	0.0170288
2.872	0.00671387	0.0170166
2.874	0.0256348	0.0169556
2.876	-0.0421143	0.0170044
2.878	-0.0372314	0.0172607
2.88	-0.00976563	0.0173157
2.882	0.0012207	0.0170715
2.884	0.00305176	0.0166992
2.886	0.00305176	0.0162903
2.888	0.0195313	0.0161926
2.89	0.00610352	0.0160461
2.892	-0.00610352	0.0158936
2.894	-0.0012207	0.0156799
2.896	-0.0372314	0.0158264
2.898	0.0195313	0.0158081
2.9	0.0488281	0.0161499
2.902	0.0219727	0.0161377
2.904	-0.0292969	0.0162598
2.906	-0.0164795	0.0162109
2.908	0.00732422	0.0162292
2.91	-0.0152588	0.0161743
2.912	-0.0238037	0.0163574
2.914	-0.0366211	0.0166748
2.916	-0.0628662	0.0172974
2.918	-0.03479	0.0174438
2.92	0.010376	0.0172668
2.922	0.0476074	0.0177185
2.924	0.00976563	0.0176697
2.926	0.0134277	0.0177917
2.928	0.0378418	0.0180786
2.93	0.020752	0.0180725
2.932	-0.0109863	0.0180298
2.934	-0.0201416	0.0178955
2.936	-0.00549316	0.017865
2.938	-0.057373	0.0184021
2.94	-0.0366211	0.0186462
2.942	-0.0250244	0.0187927
2.944	-0.0274658	0.0189819
2.946	0.00976563	0.0185852
2.948	-0.0341797	0.0188965
2.95	-0.00427246	0.0189331
2.952	0.0164795	0.0189636
2.954	-0.000610352	0.0185791
2.956	-0.0360107	0.0187195
2.958	-0.0274658	0.0186768
2.96	-0.012207	0.0186951
2.962	0.0128174	0.0187073
2.964	0.00244141	0.0185608
2.966	0.00183105	0.0183777
2.968	-0.0177002	0.0185242
2.97	-0.0238037	0.0185547
2.972	0.00793457	0.0186218
2.974	-0.022583	0.0187439
2.976	-0.00305176	0.01875
2.978	-0.00427246	0.0187256
2.98	-0.0158691	0.0188599
2.982	0.00183105	0.018866
2.984	0.0012207	0.0188599
2.986	0.0360107	0.01922
2.988	0.0708008	0.0199219
2.99	0.0939941	0.020697
2.992	-0.00671387	0.0206787
2.994	-0.022583	0.0207825
2.996	0.055542	0.0211487
2.998	0.0109863	0.0210449
3	-0.00244141	0.0208618
3.002	-0.00610352	0.0206177
3.004	-0.0317383	0.0205322
3.006	-0.043335	0.0205078
3.008	-0.0372314	0.0206482
3.01	-0.020752	0.02052
3.012	0.00671387	0.0202759
3.014	-0.00671387	0.0200317
3.016	-0.0366211	0.020343
3.018	-0.00427246	0.0203247
3.02	0.0354004	0.0204712
3.022	-0.00488281	0.0203857
3.024	0.0115967	0.0204773
3.026	-0.0292969	0.0206177
3.028	0.00427246	0.0206482
3.03	0.0421143	0.0208984
3.032	-0.0616455	0.021344
3.034	-0.022583	0.0214417
3.036	0.0115967	0.02146
3.038	0.0421143	0.0217896
3.04	0.0317383	0.0220215
3.042	0.057373	0.0225403
3.044	0.0323486	0.0227417
3.046	-0.0927734	0.0232849
3.048	-0.0726318	0.0238647
3.05	0.0537109	0.0242615
3.052	-0.067749	0.0248962
3.054	-0.103149	0.0256775
3.056	-0.0817871	0.0259949
3.058	-0.0463867	0.0263672
3.06	0.0146484	0.0263367
3.062	-0.0439453	0.0267639
3.064	0.00427246	0.0266785
3.066	0.0183105	0.0268494
3.068	-0.00732422	0.0266724
3.07	-0.0012207	0.025824
3.072	-0.0128174	0.025885
3.074	-0.0189209	0.0258179
3.076	-0.00305176	0.0254272
3.078	0.00976563	0.0251526
3.08	-0.0274658	0.0253296
3.082	-0.0115967	0.0254333
3.084	0.0286865	0.0256897
3.086	-0.0292969	0.0259521
3.088	0.0012207	0.025769
3.09	-0.00366211	0.0257446
3.092	-0.0488281	0.0261719
3.094	-0.0354004	0.0265137
3.096	-0.0500488	0.0266418
3.098	0.0134277	0.0265808
3.1	-0.00244141	0.0261169
3.102	-0.0421143	0.0263184
3.104	0.00610352	0.0260864
3.106	0.0219727	0.0261414
3.108	0	0.0260681
3.11	0.00244141	0.0259399
3.112	-0.0189209	0.0258911
3.114	0.0213623	0.0257385
3.116	-0.00793457	0.0251892
3.118	-0.0201416	0.0250427
3.12	-0.0335693	0.0252747
3.122	-0.0317383	0.025116
3.124	0.00305176	0.0250488
3.126	-0.000610352	0.0249207
3.128	-0.0720215	0.0252625
3.13	-0.0134277	0.0251892
3.132	0.00976563	0.025177
3.134	-0.0140381	0.025116
3.136	-0.0372314	0.0254333
3.138	-0.00976563	0.0249573
3.14	-0.0238037	0.0248291
3.142	-0.0299072	0.0248779
3.144	0.00366211	0.0246399
3.146	-0.0256348	0.0247986
3.148	-0.0292969	0.0247498
3.15	-0.0158691	0.0248657
3.152	-0.0219727	0.0249207
3.154	-0.0134277	0.0250488
3.156	-0.022583	0.0249146
3.158	-0.022583	0.0248657
3.16	-0.0396729	0.0251404
3.162	-0.0134277	0.0251465
3.164	-0.0109863	0.0252319
3.166	-0.0109863	0.0253235
3.168	-0.0238037	0.0253845
3.17	-0.0183105	0.0253296
3.172	0.0341797	0.025592
3.174	0.0183105	0.0255493
3.176	-0.0494385	0.0260132
3.178	0.022583	0.0261963
3.18	0.0512695	0.0265503
3.182	-0.057373	0.0271057
3.184	-0.020752	0.027301
3.186	-0.0360107	0.027301
3.188	-0.0531006	0.027124
3.19	-0.0354004	0.0265381
3.192	-0.0396729	0.0268677
3.194	-0.0305176	0.026947
3.196	0.0012207	0.0264038
3.198	-0.00793457	0.0263733
3.2	0.0158691	0.0265076
3.202	-0.0189209	0.0266357
3.204	-0.00549316	0.0263733
3.206	-0.0323486	0.0262634
3.208	0.0262451	0.0261536
3.21	-0.043335	0.0263794
3.212	-0.032959	0.0266418
3.214	-0.0213623	0.0267883
3.216	-0.0268555	0.0266907
3.218	-0.0378418	0.0270264
3.22	0.0183105	0.0268555
3.222	0.0695801	0.0275024
3.224	0.0646973	0.0280334
3.226	-0.0604248	0.0283447
3.228	-0.010376	0.0284058
3.23	0.0360107	0.0283447
3.232	0	0.0277283
3.234	-0.0482178	0.0279846
3.236	-0.0579834	0.0284485
3.238	-0.0683594	0.0287109
3.24	-0.065918	0.0290527
3.242	-0.0634766	0.0291138
3.244	-0.045166	0.0292419
3.246	-0.0366211	0.0286804
3.248	-0.0488281	0.0284424
3.25	-0.055542	0.0284607
3.252	-0.0164795	0.027948
3.254	-0.0299072	0.0272156
3.256	-0.0268555	0.0266663
3.258	-0.0213623	0.026416
3.26	0.00976563	0.0263672
3.262	-0.00183105	0.025946
3.264	-0.0402832	0.0263062
3.266	0.0280762	0.0264038
3.268	-0.0592041	0.0269226
3.27	-0.00427246	0.0269531
3.272	-0.0238037	0.027063
3.274	-0.010376	0.0269775
3.276	-0.0378418	0.0273254
3.278	-0.0408936	0.0276367
3.28	-0.0115967	0.027478
3.282	-0.0012207	0.0273743
3.284	-0.0384521	0.0274719
3.286	-0.0476074	0.027655
3.288	-0.0115967	0.0277588
3.29	-0.00976563	0.0278198
3.292	-0.00366211	0.0273682
3.294	-0.0305176	0.0273193
3.296	-0.0427246	0.0272461
3.298	-0.0164795	0.0272766
3.3	-0.0250244	0.0275024
3.302	0.00976563	0.027179
3.304	-0.00793457	0.0271973
3.306	-0.0500488	0.027478
3.308	0.000610352	0.0274841
3.31	0.00793457	0.0275391
3.312	-0.00549316	0.0274048
3.314	0.0231934	0.0274231
3.316	0.0183105	0.0275269
3.318	0.0109863	0.0274353
3.32	-0.00793457	0.027179
3.322	0.0012207	0.0268738
3.324	0.0250244	0.0270935
3.326	0.0195313	0.0272827
3.328	0.0219727	0.0267822
3.33	0.010376	0.0267517
3.332	0.0335693	0.0269897
3.334	0.0506592	0.027356
3.336	0.0274658	0.0272583
3.338	0.0140381	0.027301
3.34	0.012207	0.0271851
3.342	-0.0280762	0.0271667
3.344	-0.0402832	0.027533
3.346	-0.0463867	0.0277405
3.348	-0.0402832	0.0278503
3.35	-0.0927734	0.0286194
3.352	-0.0787354	0.029187
3.354	-0.0512695	0.0295654
3.356	-0.0280762	0.0296204
3.358	-0.0622559	0.0300171
3.36	-0.0488281	0.0301086
3.362	-0.0238037	0.0302124
3.364	-0.0408936	0.0305115
3.366	-0.0726318	0.0311279
3.368	-0.0482178	0.0313721
3.37	-0.0543213	0.0317322
3.372	-0.0738525	0.0321289
3.374	-0.0537109	0.0324829
3.376	-0.057373	0.0325623
3.378	-0.0274658	0.0326111
3.38	-0.0604248	0.0327026
3.382	-0.0421143	0.03255
3.384	-0.0317383	0.0326599
3.386	-0.0012207	0.032312
3.388	-0.0469971	0.032251
3.39	-0.0463867	0.0323608
3.392	-0.0164795	0.0321289
3.394	-0.0183105	0.0320068
3.396	-0.0268555	0.0322632
3.398	-0.0335693	0.0325195
3.4	-0.00305176	0.0323914
3.402	0.000610352	0.0322083
3.404	0	0.0321533
3.406	0.0134277	0.0319641
3.408	-0.0146484	0.0318481
3.41	-0.0299072	0.0317139
3.412	0.00610352	0.0314453
3.414	0.0146484	0.0313782
3.416	-0.0213623	0.0313232
3.418	-0.0494385	0.0314392
3.42	-0.00488281	0.0313049
3.422	-0.0158691	0.0307678
3.424	-0.0140381	0.0302612
3.426	-0.0360107	0.0300171
3.428	-0.012207	0.0300354
3.43	0.00366211	0.0297119
3.432	-0.0360107	0.030072
3.434	0.00427246	0.0296326
3.436	0.00854492	0.0291382
3.438	0.00976563	0.0285522
3.44	-0.0109863	0.0280029
3.442	-0.00732422	0.0274414
3.444	0.00976563	0.0270874
3.446	-0.00488281	0.02677
3.448	-0.0244141	0.0265259
3.45	-0.00610352	0.0260315
3.452	-0.0341797	0.0262085
3.454	0.00183105	0.0259277
3.456	-0.020752	0.0258667
3.458	-0.00244141	0.0256775
3.46	-0.00732422	0.0256531
3.462	-0.0146484	0.0257813
3.464	-0.00732422	0.0254517
3.466	-0.00915527	0.0252625
3.468	-0.00915527	0.024762
3.47	-0.0183105	0.0249023
3.472	-0.0128174	0.0247925
3.474	-0.00549316	0.0247437
3.476	-0.00976563	0.0244629
3.478	-0.0244141	0.0242981
3.48	0.0128174	0.0243103
3.482	-0.012207	0.0244202
3.484	-0.00610352	0.0240967
3.486	0.00610352	0.0236816
3.488	0.000610352	0.0235718
3.49	-0.0372314	0.0238464
3.492	-0.0201416	0.0240112
3.494	0.000610352	0.0237122
3.496	-0.0219727	0.0235046
3.498	-0.0439453	0.0237793
3.5	-0.00488281	0.0235779
3.502	-0.0274658	0.0237549
3.504	-0.0494385	0.0241699
3.506	-0.000610352	0.0236755
3.508	0.0152588	0.023822
3.51	-0.0164795	0.0239075
3.512	-0.0189209	0.0240417
3.514	-0.0219727	0.0240295
3.516	-0.012207	0.0239685
3.518	-0.0109863	0.0239685
3.52	0	0.0238892
3.522	-0.0317383	0.0241943
3.524	-0.0445557	0.0243896
3.526	0	0.0241943
3.528	-0.00854492	0.0240601
3.53	-0.0201416	0.0241577
3.532	0.0012207	0.0238342
3.534	-0.0268555	0.0235962
3.536	-0.0109863	0.0234314
3.538	-0.0256348	0.0235474
3.54	-0.00793457	0.0235046
3.542	-0.0158691	0.0233826
3.544	-0.032959	0.0233093
3.546	-0.0311279	0.0231567
3.548	-0.022583	0.0229797
3.55	-0.0213623	0.0222656
3.552	-0.00244141	0.0215027
3.554	-0.012207	0.0211121
3.556	-0.00732422	0.0209045
3.558	-0.0146484	0.0204285
3.56	-0.0146484	0.0200867
3.562	0.00854492	0.0199341
3.564	-0.00976563	0.0196228
3.566	-0.00915527	0.018988
3.568	0.0152588	0.0186584
3.57	-0.0231934	0.0183472
3.572	-0.055542	0.0181641
3.574	0.00976563	0.0177246
3.576	-0.0219727	0.0173706
3.578	-0.0262451	0.0173584
3.58	-0.0115967	0.0168701
3.582	-0.00671387	0.0165161
3.584	-0.0384521	0.0165833
3.586	-0.00671387	0.0166382
3.588	-0.00183105	0.0161865
3.59	-0.00488281	0.0157715
3.592	0.00732422	0.0156799
3.594	0.0177002	0.0156738
3.596	0.0109863	0.0155151
3.598	-0.010376	0.0152832
3.6	0.0238037	0.0154907
3.602	0.0140381	0.015625
3.604	0.00793457	0.0157043
3.606	-0.00427246	0.0156128
3.608	0.0372314	0.0158386
3.61	0.0299072	0.0158386
3.612	-0.00366211	0.0158142
3.614	0.022583	0.0158936
3.616	0.0537109	0.016217
3.618	-0.0164795	0.0158875
3.62	0.0390625	0.0162292
3.622	0.00244141	0.016095
3.624	-0.00244141	0.015979
3.626	0.00976563	0.0157166
3.628	-0.00671387	0.0156616
3.63	0.0140381	0.0157654
3.632	0.0189209	0.0155945
3.634	0.0140381	0.0156921
3.636	0.0604248	0.0162109
3.638	0.0524902	0.0166382
3.64	-0.0219727	0.016748
3.642	-0.0811768	0.0174866
3.644	-0.0720215	0.0181091
3.646	-0.0592041	0.0186523
3.648	-0.0915527	0.0193237
3.65	-0.137939	0.0206421
3.652	-0.142822	0.0217285
3.654	-0.119019	0.0229004
3.656	-0.0762939	0.0234558
3.658	-0.055542	0.0239868
3.66	-0.0244141	0.0241577
3.662	-0.00183105	0.0240295
3.664	-0.0189209	0.0241455
3.666	0.0384521	0.0244385
3.668	0.0512695	0.0248596
3.67	0.0518799	0.0251953
3.672	0.0012207	0.0250793
3.674	0.00427246	0.0250671
3.676	-0.00610352	0.0250305
3.678	0.0201416	0.0249878
3.68	0.00427246	0.0249023
3.682	-0.0354004	0.0251343
3.684	-0.0231934	0.0253052
3.686	-0.0500488	0.0257446
3.688	-0.0323486	0.026062
3.69	-0.0189209	0.0258789
3.692	0	0.0256775
3.694	-0.045166	0.026123
3.696	-0.0445557	0.0263489
3.698	-0.0256348	0.0261658
3.7	-0.00305176	0.0261475
3.702	-0.0219727	0.0260925
3.704	0.0177002	0.0257751
3.706	0.0219727	0.0259888
3.708	0.0286865	0.026123
3.71	0.0213623	0.0261719
3.712	0.0738525	0.0267212
3.714	0.078125	0.0272827
3.716	0.0354004	0.0275146
3.718	0.107422	0.028479
3.72	0.0390625	0.0288696
3.722	0.0817871	0.0293701
3.724	-0.0140381	0.0290649
3.726	-0.065918	0.0297241
3.728	0.0183105	0.0298218
3.73	-0.0488281	0.0301086
3.732	-0.0994873	0.0310913
3.734	-0.0634766	0.0314575
3.736	-0.0683594	0.0320313
3.738	-0.0756836	0.0325317
3.74	-0.0384521	0.0328369
3.742	-0.0231934	0.0329102
3.744	-0.0561523	0.0331421
3.746	0.00732422	0.0329041
3.748	0.00854492	0.0327637
3.75	-0.0280762	0.0328308
3.752	-0.0488281	0.0332947
3.754	-0.00366211	0.0332092
3.756	-0.00732422	0.0332092
3.758	-0.0164795	0.0332275
3.76	-0.0354004	0.0334351
3.762	-0.0262451	0.0336121
3.764	-0.0140381	0.0336548
3.766	-0.0109863	0.0336731
3.768	-0.00244141	0.0335449
3.77	0.00427246	0.0333557
3.772	-0.00366211	0.0328369
3.774	-0.0274658	0.0330139
3.776	0.022583	0.03302
3.778	0.0164795	0.0329224
3.78	0.000610352	0.0328125
3.782	-0.0262451	0.0330078
3.784	-0.00305176	0.0326538
3.786	0.0286865	0.0328735
3.788	-0.0439453	0.0332947
3.79	-0.000610352	0.033252
3.792	0.0146484	0.0333252
3.794	-0.0244141	0.0333923
3.796	-0.0402832	0.0336853
3.798	-0.0323486	0.033905
3.8	-0.0439453	0.0341064
3.802	-0.0195313	0.0341614
3.804	-0.0726318	0.0348083
3.806	-0.0463867	0.0352295
3.808	-0.0653076	0.0355103
3.81	0.00366211	0.0352478
3.812	-0.0170898	0.0353821
3.814	-0.0219727	0.035376
3.816	-0.0402832	0.0352417
3.818	0.0366211	0.0354431
3.82	0.00305176	0.035083
3.822	-0.0665283	0.0357239
3.824	-0.0378418	0.0360779
3.826	-0.00427246	0.0360229
3.828	-0.0305176	0.036261
3.83	-0.0219727	0.0363403
3.832	-0.0622559	0.0367737
3.834	-0.0366211	0.0369995
3.836	0	0.0363953
3.838	-0.00732422	0.0359436
3.84	-0.0115967	0.0358398
3.842	0.0213623	0.0352417
3.844	0.00305176	0.034552
3.846	0.00854492	0.0340454
3.848	0.0189209	0.0333191
3.85	-0.00976563	0.0320374
3.852	-0.0164795	0.0307739
3.854	0.022583	0.0298096
3.856	0.00183105	0.0290649
3.858	-0.0372314	0.0288818
3.86	0.0109863	0.0287476
3.862	-0.0268555	0.0289978
3.864	-0.045166	0.0292603
3.866	0.0109863	0.0289856
3.868	-0.0286865	0.0287598
3.87	-0.00488281	0.0282898
3.872	-0.0421143	0.0286987
3.874	-0.00610352	0.028717
3.876	-0.0427246	0.0290833
3.878	-0.0305176	0.029187
3.88	-0.0158691	0.029303
3.882	-0.00976563	0.0290466
3.884	-0.0317383	0.0291321
3.886	-0.0457764	0.0290894
3.888	-0.0286865	0.0290527
3.89	0.0115967	0.0289795
3.892	-0.0250244	0.0292297
3.894	-0.022583	0.0290039
3.896	-0.0469971	0.0290283
3.898	-0.032959	0.0291016
3.9	-0.00549316	0.029126
3.902	-0.0109863	0.0290161
3.904	0.00915527	0.0289307
3.906	-0.0305176	0.0290161
3.908	0.00915527	0.0288208
3.91	0.0128174	0.0287354
3.912	-0.00610352	0.0280579
3.914	0.0256348	0.027533
3.916	-0.0201416	0.0273804
3.918	-0.0244141	0.0265503
3.92	-0.0256348	0.026416
3.922	-0.0201416	0.0257996
3.924	-0.0268555	0.0259277
3.926	-0.0427246	0.0256958
3.928	-0.0286865	0.0257996
3.93	-0.0231934	0.0255432
3.932	-0.0238037	0.0247864
3.934	0.020752	0.0243591
3.936	-0.000610352	0.0236816
3.938	0.0305176	0.02323
3.94	-0.0268555	0.023114
3.942	-0.0323486	0.0232056
3.944	-0.00488281	0.0226929
3.946	-0.022583	0.0228455
3.948	-0.0244141	0.0230042
3.95	-0.0335693	0.0230591
3.952	-0.0396729	0.0229675
3.954	-0.0622559	0.0235535
3.956	-0.0012207	0.0234924
3.958	-0.0012207	0.0233398
3.96	0.00915527	0.0230774
3.962	-0.0189209	0.0230042
3.964	-0.0476074	0.0233398
3.966	-0.0250244	0.0234802
3.968	-0.0152588	0.0236084
3.97	-0.0268555	0.0238342
3.972	-0.0488281	0.0242859
3.974	-0.0604248	0.0246155
3.976	-0.0488281	0.0248779
3.978	-0.0201416	0.0249146
3.98	-0.0543213	0.0254517
3.982	-0.0152588	0.0253418
3.984	0.0195313	0.0255066
3.986	-0.00610352	0.0252808
3.988	0.00366211	0.0248779
3.99	0.0109863	0.0249817
3.992	0.0280762	0.025116
3.994	0.0177002	0.0250488
3.996	0.0201416	0.0248474
3.998	0.00549316	0.0245789
4	-0.00610352	0.0242004
4.002	0.0238037	0.0242432
4.004	-0.0354004	0.0238708
4.006	-0.0854492	0.0242615
4.008	-0.0164795	0.0237732
4.01	-0.0146484	0.0238831
4.012	-0.0518799	0.024231
4.014	-0.057373	0.024585
4.016	-0.0695801	0.0248779
4.018	-0.0549316	0.025061
4.02	-0.0354004	0.0253845
4.022	-0.0189209	0.0249084
4.024	0.020752	0.0247375
4.026	-0.0585938	0.0252808
4.028	-0.0012207	0.0249878
4.03	-0.00671387	0.0248352
4.032	-0.00305176	0.0242432
4.034	-0.00793457	0.0239563
4.036	-0.0360107	0.0243164
4.038	-0.0201416	0.0244446
4.04	-0.0152588	0.0244812
4.042	-0.0518799	0.0247864
4.044	-0.0299072	0.0250549
4.046	-0.0274658	0.0252441
4.048	-0.043335	0.0254883
4.05	-0.0195313	0.0255859
4.052	-0.0238037	0.0256592
4.054	0.00244141	0.0254578
4.056	-0.0274658	0.0257141
4.058	0.000610352	0.0253479
4.06	-0.012207	0.0253601
4.062	-0.0231934	0.0253235
4.064	-0.0427246	0.0252991
4.066	-0.0274658	0.0254639
4.068	-0.0201416	0.0253784
4.07	-0.0384521	0.0257141
4.072	-0.0341797	0.0256348
4.074	-0.0372314	0.025946
4.076	-0.0396729	0.0259155
4.078	0.0146484	0.0257568
4.08	0.00976563	0.0256958
4.082	-0.0280762	0.0258789
4.084	-0.032959	0.0258911
4.086	0.0311279	0.0257446
4.088	-0.0146484	0.0256042
4.09	-0.0189209	0.0256775
4.092	-0.00549316	0.0254822
4.094	-0.0335693	0.025592
4.096	-0.022583	0.0253479
4.098	-0.0152588	0.0251709
4.1	-0.0201416	0.0253174
4.102	-0.0384521	0.025592
4.104	-0.0323486	0.025824
4.106	-0.0280762	0.0257996
4.108	-0.0463867	0.0261719
4.11	-0.0195313	0.026239
4.112	-0.0268555	0.0264465
4.114	-0.0311279	0.0265015
4.116	-0.0592041	0.0268921
4.118	-0.0244141	0.0268921
4.12	-0.0384521	0.0270203
4.122	-0.0305176	0.027124
4.124	-0.0585938	0.0274414
4.126	-0.043335	0.0274475
4.128	0.000610352	0.0271667
4.13	-0.032959	0.0272644
4.132	-0.0439453	0.0274658
4.134	-0.0488281	0.0277466
4.136	-0.0305176	0.0280457
4.138	-0.0183105	0.0279236
4.14	-0.0372314	0.0280273
4.142	-0.0213623	0.0279175
4.144	-0.00366211	0.0279053
4.146	-0.0274658	0.0279541
4.148	-0.0292969	0.0280029
4.15	-0.00793457	0.0277466
4.152	-0.0195313	0.0275452
4.154	-0.0238037	0.0271606
4.156	-0.0012207	0.0271606
4.158	-0.00915527	0.02724
4.16	-0.0201416	0.0273499
4.162	-0.0238037	0.0273987
4.164	-0.0195313	0.0271179
4.166	0.010376	0.0269714
4.168	-0.0140381	0.0269592
4.17	-0.0292969	0.0269836
4.172	-0.0305176	0.0268005
4.174	-0.0152588	0.0263489
4.176	-0.0305176	0.0261658
4.178	-0.057373	0.0265381
4.18	-0.0262451	0.0262573
4.182	-0.0311279	0.026416
4.184	-0.0402832	0.0266235
4.186	-0.0219727	0.0267822
4.188	-0.0549316	0.0272949
4.19	-0.0360107	0.0275452
4.192	-0.00366211	0.027301
4.194	-0.0250244	0.0273743
4.196	-0.0360107	0.027533
4.198	-0.012207	0.0276001
4.2	-0.0256348	0.0277954
4.202	0.0146484	0.0277039
4.204	-0.0531006	0.0278809
4.206	-0.010376	0.0271301
4.208	-0.0262451	0.0272278
4.21	-0.0408936	0.0274902
4.212	-0.0128174	0.0270996
4.214	-0.020752	0.0267334
4.216	-0.0476074	0.0265137
4.218	-0.00610352	0.0260254
4.22	0.00671387	0.0257385
4.222	-0.0280762	0.0258301
4.224	0.0177002	0.0257996
4.226	0.045166	0.0256653
4.228	-0.022583	0.0258789
4.23	0.0201416	0.0260132
4.232	0.020752	0.0261902
4.234	-0.00488281	0.0261597
4.236	0.0183105	0.0259827
4.238	-0.0177002	0.0259583
4.24	-0.00732422	0.0258789
4.242	-0.032959	0.0256897
4.244	-0.0335693	0.0257263
4.246	-0.03479	0.0257996
4.248	-0.0280762	0.025647
4.25	-0.00732422	0.0255249
4.252	-0.0360107	0.025647
4.254	-0.0164795	0.0257874
4.256	-0.0341797	0.0258545
4.258	-0.00732422	0.0259216
4.26	-0.00793457	0.0258789
4.262	0.00732422	0.0257202
4.264	-0.032959	0.0256226
4.266	-0.0244141	0.025592
4.268	-0.0842285	0.0262329
4.27	-0.0390625	0.026239
4.272	-0.0189209	0.0260864
4.274	-0.0408936	0.026123
4.276	-0.0170898	0.0258972
4.278	-0.0268555	0.0260193
4.28	0.00488281	0.0259705
4.282	-0.0360107	0.0260498
4.284	0.0317383	0.0260376
4.286	0.0238037	0.0259644
4.288	-0.0549316	0.0263672
4.29	-0.032959	0.0265076
4.292	0.00549316	0.0265076
4.294	-0.0354004	0.0265259
4.296	-0.0531006	0.0268311
4.298	-0.0378418	0.0270569
4.3	-0.0146484	0.027002
4.302	0.00488281	0.0266663
4.304	-0.012207	0.0264648
4.306	0.00305176	0.0262146
4.308	0.0012207	0.0257629
4.31	0.00366211	0.0256042
4.312	-0.0244141	0.0255798
4.314	0.0201416	0.02547
4.316	-0.020752	0.0250854
4.318	-0.0360107	0.0252014
4.32	-0.0384521	0.0252014
4.322	-0.0335693	0.0252319
4.324	-0.00549316	0.0247009
4.326	0.00183105	0.0242859
4.328	-0.0378418	0.0246582
4.33	-0.0537109	0.0248657
4.332	0.00305176	0.0244568
4.334	-0.0189209	0.0241577
4.336	-0.0158691	0.0240112
4.338	-0.0317383	0.0241455
4.34	-0.0408936	0.0241821
4.342	-0.032959	0.0242981
4.344	-0.0384521	0.024646
4.346	-0.0408936	0.0247803
4.348	-0.00976563	0.024585
4.35	-0.0170898	0.0246765
4.352	-0.0158691	0.0246399
4.354	-0.00793457	0.0244812
4.356	0.0231934	0.0247009
4.358	-0.0299072	0.0249084
4.36	-0.00427246	0.0247498
4.362	0.00793457	0.0245911
4.364	-0.00366211	0.0244324
4.366	0.0189209	0.0245178
4.368	0.0231934	0.0246094
4.37	-0.0231934	0.0245483
4.372	-0.00549316	0.0242981
4.374	0.0109863	0.0242554
4.376	-0.0439453	0.0243896
4.378	-0.020752	0.0240234
4.38	-0.0891113	0.0246521
4.382	-0.0341797	0.0246826
4.384	-0.0280762	0.0245605
4.386	-0.0616455	0.0249573
4.388	-0.0592041	0.025
4.39	-0.0317383	0.0249573
4.392	-0.00427246	0.0249634
4.394	0.00732422	0.0247864
4.396	-0.057373	0.025
4.398	0.00854492	0.0249634
4.4	-0.010376	0.0248108
4.402	-0.0463867	0.0251282
4.404	-0.0518799	0.025116
4.406	-0.0219727	0.0252319
4.408	-0.0500488	0.02547
4.41	-0.0378418	0.0254395
4.412	-0.0250244	0.0255615
4.414	-0.0628662	0.0259827
4.416	-0.043335	0.0259399
4.418	-0.0128174	0.0260071
4.42	0.00366211	0.0259766
4.422	0.00732422	0.025769
4.424	-0.0115967	0.025708
4.426	-0.00488281	0.0253052
4.428	0.0701904	0.0257813
4.43	-0.0183105	0.0257629
4.432	-0.00244141	0.0255798
4.434	0.0170898	0.0257019
4.436	-0.00976563	0.0256165
4.438	0.00549316	0.0254944
4.44	-0.0195313	0.0256165
4.442	-0.0390625	0.0256775
4.444	-0.0109863	0.0254517
4.446	0.000610352	0.0251099
4.448	-0.0109863	0.024939
4.45	0.00854492	0.0249512
4.452	0.0231934	0.024823
4.454	-0.00427246	0.0247009
4.456	0.0012207	0.0243713
4.458	-0.0134277	0.0244324
4.46	-0.0164795	0.0245178
4.462	-0.0201416	0.024646
4.464	-0.0469971	0.0247864
4.466	-0.0402832	0.0249451
4.468	-0.03479	0.0244507
4.47	-0.0305176	0.0243652
4.472	-0.0396729	0.0245728
4.474	-0.0115967	0.0242798
4.476	-0.00976563	0.0242065
4.478	-0.043335	0.0243713
4.48	-0.0262451	0.024585
4.482	-0.0390625	0.0246155
4.484	-0.00793457	0.0243774
4.486	-0.0219727	0.0243591
4.488	-0.0604248	0.0244141
4.49	-0.0360107	0.0244446
4.492	-0.020752	0.0245972
4.494	-0.0183105	0.0244263
4.496	-0.012207	0.0240173
4.498	-0.00671387	0.0237061
4.5	-0.0268555	0.0238281
4.502	-0.0341797	0.0241211
4.504	-0.0494385	0.0244934
4.506	-0.0341797	0.0248047
4.508	-0.045166	0.0252441
4.51	-0.0164795	0.0253723
4.512	-0.0360107	0.0254883
4.514	-0.0286865	0.0255737
4.516	-0.00488281	0.025415
4.518	0.00854492	0.0251404
4.52	0.0268555	0.0250244
4.522	0.00244141	0.0247131
4.524	0	0.0246582
4.526	0.00244141	0.0246643
4.528	0.0189209	0.0244751
4.53	-0.00732422	0.0240112
4.532	-0.0408936	0.0243896
4.534	-0.0280762	0.0244812
4.536	-0.010376	0.0244263
4.538	-0.0299072	0.024408
4.54	-0.0408936	0.024408
4.542	0.0109863	0.0241882
4.544	-0.0427246	0.024231
4.546	-0.0384521	0.0242065
4.548	-0.0231934	0.0243408
4.55	-0.0238037	0.024408
4.552	0.00244141	0.0242737
4.554	-0.0286865	0.0244812
4.556	0.00244141	0.0242737
4.558	-0.00793457	0.024054
4.56	-0.00549316	0.0240662
4.562	0.0250244	0.0242371
4.564	0.0170898	0.0243713
4.566	-0.00793457	0.0242615
4.568	-0.0189209	0.0242188
4.57	0.00549316	0.0240417
4.572	-0.0219727	0.0242065
4.574	-0.0396729	0.0244934
4.576	-0.0695801	0.0247498
4.578	-0.0408936	0.0249512
4.58	-0.00915527	0.0241516
4.582	-0.0366211	0.024176
4.584	-0.0616455	0.0245117
4.586	-0.0415039	0.0243103
4.588	0.00793457	0.0237976
4.59	-0.0384521	0.0238647
4.592	-0.0292969	0.024115
4.594	-0.00244141	0.0240662
4.596	-0.0195313	0.0236877
4.598	0.00244141	0.0236267
4.6	0.00366211	0.0235596
4.602	-0.0292969	0.0233887
4.604	-0.00610352	0.0229309
4.606	0.0360107	0.0230713
4.608	-0.0323486	0.0228943
4.61	-0.00427246	0.0225586
4.612	-0.0164795	0.0224731
4.614	-0.0274658	0.0221191
4.616	-0.0280762	0.0219666
4.618	-0.0366211	0.0222046
4.62	-0.0543213	0.0227112
4.622	-0.0372314	0.0230103
4.624	-0.0286865	0.0231812
4.626	-0.0183105	0.0233154
4.628	-0.0213623	0.0228271
4.63	0.0109863	0.0227539
4.632	0.0219727	0.0229492
4.634	-0.0341797	0.0231201
4.636	0.012207	0.0231445
4.638	0.0494385	0.023584
4.64	0.0311279	0.0237
4.642	-0.0213623	0.0235229
4.644	-0.0274658	0.0236877
4.646	0.0231934	0.0239136
4.648	-0.0140381	0.0239441
4.65	-0.0372314	0.024231
4.652	-0.0219727	0.0242188
4.654	0.00915527	0.0242676
4.656	-0.020752	0.0244629
4.658	-0.0262451	0.0245911
4.66	0.00366211	0.0244629
4.662	-0.0360107	0.0246216
4.664	-0.0439453	0.0245911
4.666	0.00976563	0.0242859
4.668	-0.0518799	0.0244568
4.67	-0.0341797	0.0244934
4.672	-0.000610352	0.0241028
4.674	-0.0109863	0.0240967
4.676	-0.0549316	0.0245483
4.678	-0.00183105	0.0241333
4.68	-0.00427246	0.0239136
4.682	-0.0152588	0.0236755
4.684	-0.0280762	0.023877
4.686	-0.0109863	0.0237671
4.688	-0.00976563	0.0232605
4.69	-0.0183105	0.0230835
4.692	-0.0128174	0.0230042
4.694	-0.00610352	0.0228821
4.696	0.00854492	0.0228455
4.698	-0.00610352	0.0228394
4.7	0.00549316	0.0226257
4.702	0.0146484	0.0224304
4.704	-0.0164795	0.0221008
4.706	-0.000610352	0.0217651
4.708	-0.022583	0.0215393
4.71	-0.020752	0.021582
4.712	-0.00549316	0.0212769
4.714	-0.03479	0.0213379
4.716	-0.0134277	0.0214233
4.718	-0.0158691	0.0214966
4.72	-0.00976563	0.0213257
4.722	-0.010376	0.021405
4.724	0.0164795	0.0215698
4.726	-0.0115967	0.0216614
4.728	-0.0109863	0.021582
4.73	0.00610352	0.0215698
4.732	0.00793457	0.0212402
4.734	-0.0213623	0.0211731
4.736	-0.0115967	0.0211853
4.738	0.0158691	0.0210449
4.74	-0.00183105	0.0206543
4.742	0.00488281	0.0205933
4.744	0.0616455	0.0207825
4.746	-0.0317383	0.0207153
4.748	-0.0201416	0.0206848
4.75	-0.043335	0.0208801
4.752	-0.0164795	0.0210205
4.754	-0.0585938	0.0213196
4.756	-0.0720215	0.0220154
4.758	-0.0592041	0.0225281
4.76	-0.043335	0.0229065
4.762	-0.0634766	0.023291
4.764	-0.0488281	0.0236084
4.766	-0.0195313	0.0237244
4.768	-0.00793457	0.0236145
4.77	0	0.0235596
4.772	-0.010376	0.0234436
4.774	-0.0427246	0.0234741
4.776	-0.055542	0.0233337
4.778	-0.0177002	0.0231018
4.78	-0.00610352	0.0230713
4.782	-0.0250244	0.0229553
4.784	-0.0317383	0.0226562
4.786	-0.0256348	0.0224976
4.788	-0.00976563	0.0225159
4.79	0.0201416	0.0223328
4.792	0.00549316	0.0220947
4.794	-0.00366211	0.0221069
4.796	0.00976563	0.0220093
4.798	-0.0372314	0.0223572
4.8	-0.0140381	0.0224609
4.802	-0.00976563	0.0222656
4.804	-0.0201416	0.022406
4.806	-0.0158691	0.0222046
4.808	-0.00610352	0.0219421
4.81	-0.00488281	0.0219482
4.812	-0.0012207	0.0217957
4.814	0	0.021521
4.816	0.000610352	0.0212463
4.818	-0.0012207	0.0208923
4.82	0.0012207	0.0203613
4.822	-0.000610352	0.0199951
4.824	0.00976563	0.0198059
4.826	-0.00366211	0.0196594
4.828	0.0231934	0.0196777
4.83	0.00793457	0.0196472
4.832	0.0140381	0.0195679
4.834	0.0299072	0.0195251
4.836	0.00427246	0.0194458
4.838	-0.0262451	0.0192139
4.84	-0.0305176	0.0192078
4.842	-0.00854492	0.0190796
4.844	-0.0292969	0.0190979
4.846	-0.0335693	0.0192017
4.848	-0.0177002	0.0192383
4.85	-0.0213623	0.0190796
4.852	0.00183105	0.0188782
4.854	-0.0488281	0.0192749
4.856	-0.0244141	0.0193115
4.858	-0.0109863	0.0191589
4.86	-0.0299072	0.0194214
4.862	-0.022583	0.0192871
4.864	-0.0183105	0.0190308
4.866	0.00976563	0.0190308
4.868	-0.0848389	0.0193604
4.87	-0.00793457	0.0190979
4.872	0.0189209	0.019281
4.874	0.0012207	0.0191833
4.876	-0.0372314	0.0190063
4.878	-0.0256348	0.0192444
4.88	-0.020752	0.0194092
4.882	-0.0231934	0.0194885
4.884	0.00915527	0.0192993
4.886	-0.0115967	0.0193054
4.888	-0.0286865	0.0194946
4.89	-0.00305176	0.019342
4.892	-0.00610352	0.0192749
4.894	-0.0134277	0.0193481
4.896	-0.0128174	0.0193909
4.898	-0.000610352	0.0193359
4.9	-0.00549316	0.0193359
4.902	-0.00732422	0.0192627
4.904	-0.00915527	0.0191895
4.906	-0.00854492	0.0192688
4.908	0.00854492	0.0191284
4.91	0.00793457	0.0190002
4.912	-0.00610352	0.0190063
4.914	-0.00732422	0.0187317
4.916	0.00793457	0.0186768
4.918	-0.012207	0.0186401
4.92	-0.010376	0.0186462
4.922	-0.0109863	0.0186523
4.924	0.0274658	0.0187622
4.926	-0.0488281	0.0191345
4.928	0.00671387	0.0190918
4.93	0.0134277	0.019165
4.932	0.0012207	0.0190979
4.934	-0.00671387	0.0189514
4.936	-0.0286865	0.0191223
4.938	0.0146484	0.0191101
4.94	0.0152588	0.0192444
4.942	-0.0177002	0.0193726
4.944	0.00366211	0.0187927
4.946	-0.0146484	0.0186218
4.948	-0.0280762	0.0187012
4.95	0.0317383	0.0185852
4.952	-0.00305176	0.0184509
4.954	0.022583	0.0180908
4.956	-0.0323486	0.0176941
4.958	0.0311279	0.0174133
4.96	-0.00549316	0.0170349
4.962	-0.0390625	0.0167908
4.964	0.0134277	0.0164368
4.966	-0.0134277	0.0163757
4.968	-0.0183105	0.0164795
4.97	-0.00610352	0.0165405
4.972	0.00244141	0.0164612
4.974	-0.0012207	0.0160461
4.976	0.00183105	0.015509
4.978	-0.010376	0.0154358
4.98	0.00427246	0.0154175
4.982	-0.00671387	0.0152344
4.984	-0.0335693	0.0152527
4.986	-0.0463867	0.0154602
4.988	-0.0360107	0.0157227
4.99	-0.0311279	0.0158325
4.992	-0.0311279	0.0160889
4.994	-0.0335693	0.0163879
4.996	-0.0115967	0.0164063
4.998	-0.0219727	0.0162537
5	-0.0268555	0.0163818
5.002	-0.00976563	0.0163818
5.004	-0.0146484	0.0163269
5.006	-0.0183105	0.0163513
5.008	-0.0195313	0.0164856
5.01	-0.012207	0.0165588
5.012	-0.0439453	0.0169861
5.014	0.00427246	0.0170288
5.016	0.00549316	0.0170776
5.018	-0.0213623	0.0172791
5.02	-0.00732422	0.0173401
5.022	-0.0164795	0.0174988
5.024	-0.00732422	0.0174744
5.026	0.00305176	0.0174683
5.028	-0.00671387	0.0173035
5.03	-0.0115967	0.0173401
5.032	-0.00793457	0.0172791
5.034	-0.00549316	0.0170349
5.036	0.0115967	0.0171082
5.038	0.00305176	0.0168762
5.04	0.0189209	0.0167603
5.042	0.0109863	0.0167847
5.044	-0.00549316	0.0165466
5.046	-0.00427246	0.0162537
5.048	0.0164795	0.0162415
5.05	0.0323486	0.0163513
5.052	0.00427246	0.0163757
5.054	0.000610352	0.0158936
5.056	-0.0250244	0.0158997
5.058	-0.0482178	0.016272
5.06	-0.0158691	0.0161316
5.062	-0.0250244	0.016156
5.064	-0.0341797	0.0163147
5.066	-0.0616455	0.0168335
5.068	-0.0494385	0.0164795
5.07	-0.0317383	0.0167175
5.072	-0.0372314	0.0169006
5.074	-0.0354004	0.0172424
5.076	-0.0140381	0.0170105
5.078	-0.0268555	0.0170227
5.08	-0.0372314	0.0171875
5.082	-0.03479	0.0173035
5.084	-0.0262451	0.0174744
5.086	-0.0305176	0.0176636
5.088	-0.0268555	0.0176453
5.09	-0.0256348	0.0178711
5.092	-0.0158691	0.0179688
5.094	-0.0152588	0.0179871
5.096	-0.00610352	0.0179199
5.098	-0.000610352	0.0179199
5.1	-0.00671387	0.0179321
5.102	-0.0183105	0.018042
5.104	-0.00976563	0.0180481
5.106	-0.0244141	0.0182068
5.108	-0.00366211	0.018158
5.11	-0.00732422	0.0181519
5.112	-0.0280762	0.0183716
5.114	-0.0146484	0.0184448
5.116	-0.00732422	0.0184387
5.118	-0.0177002	0.0184937
5.12	-0.0128174	0.0185181
5.122	-0.0109863	0.0185181
5.124	-0.0201416	0.0184448
5.126	-0.0140381	0.0180969
5.128	-0.0238037	0.0182678
5.13	-0.0238037	0.0183716
5.132	-0.0134277	0.0184937
5.134	-0.0158691	0.0185852
5.136	-0.00427246	0.0183411
5.138	-0.00915527	0.0182861
5.14	-0.00488281	0.0181824
5.142	-0.00305176	0.0180359
5.144	-0.010376	0.018103
5.146	-0.00915527	0.0180481
5.148	-0.00671387	0.0178345
5.15	-0.0115967	0.0176331
5.152	0.00732422	0.0176758
5.154	-0.00366211	0.0174866
5.156	-0.03479	0.017511
5.158	-0.0231934	0.0174316
5.16	-0.012207	0.0174988
5.162	-0.0134277	0.0172424
5.164	-0.0201416	0.0173096
5.166	-0.0256348	0.0174316
5.168	-0.0256348	0.0175049
5.17	-0.0250244	0.0176941
5.172	-0.0128174	0.0177979
5.174	-0.0164795	0.0179504
5.176	-0.0183105	0.0181152
5.178	-0.0115967	0.0181274
5.18	-0.0128174	0.0182129
5.182	-0.012207	0.0182678
5.184	-0.0134277	0.0180664
5.186	-0.010376	0.0177063
5.188	-0.00732422	0.0174194
5.19	-0.0128174	0.0172363
5.192	-0.00976563	0.0170227
5.194	-0.00610352	0.016748
5.196	-0.00427246	0.0166748
5.198	-0.00183105	0.0164734
5.2	-0.00671387	0.016272
5.202	-0.0146484	0.0163208
5.204	-0.00305176	0.0162048
5.206	-0.0109863	0.0161316
5.208	-0.000610352	0.0159424
5.21	-0.022583	0.0160461
5.212	-0.0244141	0.0158508
5.214	-0.0134277	0.0159424
5.216	-0.0183105	0.0160706
5.218	-0.0280762	0.0161377
5.22	-0.0195313	0.0162598
5.222	-0.0219727	0.0163147
5.224	-0.0115967	0.0163574
5.226	0.00427246	0.0163696
5.228	0.00915527	0.016394
5.23	0.00732422	0.0163513
5.232	0.0128174	0.0164001
5.234	0.00305176	0.0163757
5.236	-0.0012207	0.016272
5.238	-0.00610352	0.0163025
5.24	-0.0238037	0.0163513
5.242	-0.0335693	0.0165771
5.244	-0.0360107	0.0168823
5.246	-0.0463867	0.0173035
5.248	-0.0463867	0.0176025
5.25	-0.0390625	0.0176697
5.252	-0.0323486	0.0179504
5.254	-0.0286865	0.0182312
5.256	-0.0274658	0.0182556
5.258	-0.0268555	0.018042
5.26	-0.020752	0.0180908
5.262	-0.0164795	0.0180054
5.264	-0.0311279	0.0179749
5.266	-0.0268555	0.017627
5.268	-0.0201416	0.017334
5.27	-0.0164795	0.0171814
5.272	-0.0183105	0.0169922
5.274	-0.0231934	0.0168701
5.276	-0.0146484	0.0168762
5.278	-0.00976563	0.0167053
5.28	-0.0140381	0.0164734
5.282	-0.0128174	0.0162537
5.284	-0.0115967	0.0161072
5.286	-0.0109863	0.0159119
5.288	-0.010376	0.0157471
5.29	-0.00793457	0.0155701
5.292	-0.0152588	0.015564
5.294	-0.0158691	0.0155701
5.296	-0.0177002	0.015686
5.298	-0.0189209	0.0158691
5.3	-0.0140381	0.0159424
5.302	-0.0183105	0.0159424
5.304	-0.022583	0.0160706
5.306	-0.0189209	0.0160156
5.308	-0.0146484	0.0161255
5.31	-0.0146484	0.0161987
5.312	-0.0164795	0.0160828
5.314	-0.0146484	0.0160828
5.316	-0.0134277	0.0161438
5.318	-0.0158691	0.0161255
5.32	-0.012207	0.0161194
5.322	-0.0158691	0.0161682
5.324	-0.0115967	0.0160828
5.326	-0.0170898	0.0161133
5.328	-0.0219727	0.016095
5.33	-0.0152588	0.0160095
5.332	-0.0164795	0.01604
5.334	-0.0146484	0.0160278
5.336	-0.0213623	0.0161987
5.338	-0.0201416	0.0163086
5.34	-0.0183105	0.0164429
5.342	-0.0164795	0.0165771
5.344	-0.0152588	0.016626
5.346	-0.0170898	0.0167053
5.348	-0.0195313	0.0168335
5.35	-0.0140381	0.0168579
5.352	-0.020752	0.0169922
5.354	-0.0231934	0.0171875
5.356	-0.0164795	0.0170044
5.358	-0.0164795	0.0169373
5.36	-0.0195313	0.0170105
5.362	-0.0177002	0.0170532
5.364	-0.0134277	0.0169861
5.366	-0.0177002	0.0169067
5.368	-0.0183105	0.0168335
5.37	-0.0170898	0.0167542
5.372	-0.0140381	0.0167664
5.374	-0.0140381	0.0167419
5.376	-0.0183105	0.0167419
5.378	-0.0170898	0.0167969
5.38	-0.0158691	0.0168274
5.382	-0.0146484	0.0168518
5.384	-0.0134277	0.0168518
5.386	-0.0140381	0.0168884
5.388	-0.0152588	0.0169678
5.39	-0.0152588	0.0169922
5.392	-0.00671387	0.0169617
5.394	-0.0170898	0.0170715
5.396	-0.020752	0.0172363
5.398	-0.0280762	0.0174988
5.4	-0.00671387	0.0174988
5.402	-0.00732422	0.0174255
5.404	-0.0128174	0.0175232
5.406	-0.0292969	0.0177063
5.408	-0.0134277	0.0178345
5.41	-0.0201416	0.0178101
5.412	-0.00976563	0.0176636
5.414	-0.0183105	0.0177124
5.416	-0.0177002	0.0177063
5.418	-0.0256348	0.0176819
5.42	-0.0250244	0.0177368
5.422	-0.022583	0.0177429
5.424	-0.022583	0.0178528
5.426	-0.0195313	0.0180054
5.428	-0.0201416	0.0181152
5.43	-0.0231934	0.0182739
5.432	-0.0238037	0.0183838
5.434	-0.0213623	0.0185669
5.436	-0.0219727	0.0187744
5.438	-0.0183105	0.0188965
5.44	-0.0195313	0.0188538
5.442	-0.0280762	0.0187988
5.444	-0.0231934	0.0186707
5.446	-0.0146484	0.0183533
5.448	-0.0128174	0.0180176
5.45	-0.0231934	0.0178589
5.452	-0.020752	0.0177429
5.454	-0.0177002	0.0176331
5.456	-0.0170898	0.0175293
5.458	-0.0195313	0.0174561
5.46	-0.0170898	0.0174194
5.462	-0.0189209	0.0174438
5.464	-0.0152588	0.0172852
5.466	-0.0164795	0.0171814
5.468	-0.0158691	0.0171387
5.47	-0.012207	0.0170959
5.472	-0.0115967	0.0170288
5.474	-0.012207	0.0169189
5.476	-0.0152588	0.016925
5.478	-0.0164795	0.0169922
5.48	-0.0152588	0.0170044
5.482	-0.0158691	0.0170349
5.484	-0.0189209	0.0171082
5.486	-0.0213623	0.0172119
5.488	-0.0158691	0.0172668
5.49	-0.0115967	0.0173035
5.492	-0.0189209	0.0173401
5.494	-0.0128174	0.0173096
5.496	-0.00976563	0.0172302
5.498	-0.0134277	0.0171753
5.5	-0.0177002	0.0172119
5.502	-0.010376	0.0171326
5.504	-0.010376	0.0170105
5.506	-0.0109863	0.0169312
5.508	-0.0134277	0.0169189
5.51	-0.0134277	0.0169067
5.512	-0.0189209	0.0169312
5.514	-0.012207	0.0169067
5.516	-0.00732422	0.0168457
5.518	-0.0115967	0.016803
5.52	-0.0128174	0.0168091
5.522	-0.0128174	0.0167786
5.524	-0.0219727	0.0168823
5.526	-0.0012207	0.0167236
5.528	-0.00549316	0.0165588
5.53	-0.0158691	0.0165649
5.532	-0.00915527	0.0164917
5.534	-0.00671387	0.0164124
5.536	-0.00244141	0.0162231
5.538	-0.0109863	0.0161316
5.54	-0.00244141	0.0159729
5.542	-0.00183105	0.0158264
5.544	-0.00976563	0.0157715
5.546	-0.00732422	0.0156738
5.548	-0.00732422	0.0155518
5.55	-0.010376	0.0155151
5.552	-0.00915527	0.0153992
5.554	-0.0109863	0.0152771
5.556	-0.010376	0.0152161
5.558	-0.012207	0.0151733
5.56	-0.0115967	0.015094
5.562	-0.012207	0.0150391
5.564	-0.0128174	0.015033
5.566	-0.0128174	0.0149841
5.568	-0.0109863	0.0149109
5.57	-0.0115967	0.014856
5.572	-0.0109863	0.0148254
5.574	-0.012207	0.0148071
5.576	-0.00976563	0.0147217
5.578	-0.00793457	0.0146301
5.58	-0.00854492	0.0145569
5.582	-0.00915527	0.014502
5.584	-0.00732422	0.0144409
5.586	-0.00793457	0.0143799
5.588	-0.00793457	0.0143066
5.59	-0.00732422	0.0142273
5.592	-0.0109863	0.01427
5.594	-0.00976563	0.0141968
5.596	-0.00915527	0.0140808
5.598	-0.012207	0.0139221
5.6	-0.0134277	0.0139893
5.602	-0.00915527	0.0140076
5.604	-0.0109863	0.0139893
5.606	-0.0134277	0.0138306
5.608	-0.010376	0.0138
5.61	-0.0134277	0.0137329
5.612	-0.00976563	0.0137329
5.614	-0.010376	0.0136536
5.616	-0.00610352	0.0135376
5.618	-0.00671387	0.0133484
5.62	-0.0158691	0.0132568
5.622	-0.00915527	0.0131226
5.624	-0.00671387	0.0129639
5.626	-0.00976563	0.0128662
5.628	-0.0115967	0.0127808
5.63	-0.0134277	0.0126831
5.632	-0.0164795	0.0126099
5.634	-0.010376	0.0125
5.636	-0.00610352	0.0123413
5.638	-0.0238037	0.0123962
5.64	-0.0128174	0.0123291
5.642	-0.00427246	0.0120911
5.644	-0.00915527	0.0119507
5.646	-0.00915527	0.0118958
5.648	-0.010376	0.0118713
5.65	-0.0012207	0.0116516
5.652	-0.00305176	0.0114746
5.654	-0.00244141	0.011322
5.656	-0.00183105	0.0111694
5.658	-0.00305176	0.0110046
5.66	-0.00305176	0.0108643
5.662	0.00366211	0.0107117
5.664	-0.0012207	0.0105713
5.666	-0.010376	0.0105103
5.668	-0.00915527	0.0104431
5.67	-0.00549316	0.010376
5.672	-0.00732422	0.0103333
5.674	-0.0134277	0.0103455
5.676	-0.0146484	0.0103394
5.678	-0.0140381	0.0103149
5.68	-0.0164795	0.0103271
5.682	-0.0164795	0.0103333
5.684	-0.00976563	0.0102417
5.686	-0.0128174	0.0101563
5.688	-0.0109863	0.0101074
5.69	-0.0109863	0.0101013
5.692	-0.00854492	0.00999756
5.694	-0.012207	0.00999146
5.696	-0.00854492	0.00997925
5.698	-0.012207	0.00996704
5.7	-0.00366211	0.00982666
5.702	-0.00305176	0.00975342
5.704	-0.00976563	0.00974731
5.706	-0.00671387	0.00970459
5.708	-0.00427246	0.00961304
5.71	-0.00610352	0.00953979
5.712	-0.00732422	0.00942383
5.714	-0.00366211	0.00933838
5.716	-0.00915527	0.00935669
5.718	-0.00854492	0.00932617
5.72	-0.010376	0.00930176
5.722	-0.00976563	0.00927124
5.724	-0.00854492	0.00913696
5.726	-0.00610352	0.00918579
5.728	-0.00488281	0.00917969
5.73	-0.00854492	0.00910645
5.732	-0.00549316	0.00906982
5.734	-0.00244141	0.0090271
5.736	0	0.00900269
5.738	-0.00366211	0.00892944
5.74	0.000610352	0.00891113
5.742	-0.00244141	0.00891724
5.744	-0.00305176	0.0088501
5.746	-0.00366211	0.00881348
5.748	-0.00915527	0.00883179
5.75	-0.00732422	0.00880127
5.752	-0.00244141	0.00873413
5.754	-0.0140381	0.00876465
5.756	-0.012207	0.00878296
5.758	-0.00854492	0.00874634
5.76	-0.0134277	0.00876465
5.762	-0.00793457	0.00872192
5.764	0.00183105	0.00861206
5.766	0.0012207	0.00849609
5.768	-0.00793457	0.00846558
5.77	-0.00793457	0.00842896
5.772	0.00305176	0.00834961
5.774	0	0.00822754
5.776	-0.00244141	0.0081543
5.778	-0.00366211	0.00811157
5.78	-0.00549316	0.00808105
5.782	-0.00610352	0.00805054
5.784	-0.00488281	0.00802612
5.786	-0.00610352	0.00800781
5.788	-0.00671387	0.00799561
5.79	-0.010376	0.00802612
5.792	-0.00305176	0.00794678
5.794	-0.00305176	0.00787964
5.796	-0.00793457	0.00786743
5.798	-0.00610352	0.0078064
5.8	-0.00610352	0.00773315
5.802	-0.00549316	0.00769653
5.804	-0.00488281	0.0076355
5.806	-0.00793457	0.00758057
5.808	-0.00549316	0.00753174
5.81	-0.00610352	0.0074585
5.812	-0.00854492	0.00744629
5.814	-0.00915527	0.00743408
5.816	-0.00854492	0.0074585
5.818	-0.00793457	0.0074707
5.82	-0.00610352	0.00737305
5.822	-0.00976563	0.00737915
5.824	-0.00488281	0.00736084
5.826	-0.00854492	0.00734863
5.828	-0.0109863	0.00734253
5.83	-0.00671387	0.00727539
5.832	-0.0012207	0.0071228
5.834	-0.012207	0.00714111
5.836	-0.010376	0.00718384
5.838	-0.00793457	0.00702515
5.84	-0.00610352	0.00695801
5.842	-0.00915527	0.00700684
5.844	-0.00915527	0.00700684
5.846	-0.00793457	0.00699463
5.848	-0.00732422	0.00696411
5.85	-0.00427246	0.00699463
5.852	-0.00976563	0.00706177
5.854	-0.0115967	0.00715332
5.856	-0.00732422	0.00720825
5.858	-0.00793457	0.00725708
5.86	-0.012207	0.00734863
5.862	-0.0134277	0.00744629
5.864	-0.0134277	0.00756836
5.866	-0.0115967	0.00758057
5.868	-0.010376	0.00759277
5.87	-0.0109863	0.00764771
5.872	-0.010376	0.00767822
5.874	-0.00976563	0.0076416
5.876	-0.0109863	0.00760498
5.878	-0.00854492	0.00755005
5.88	-0.0115967	0.00750122
5.882	-0.0152588	0.00748901
5.884	-0.012207	0.00751343
5.886	-0.0158691	0.00754395
5.888	-0.0183105	0.00761719
5.89	-0.0177002	0.00768433
5.892	-0.020752	0.0078064
5.894	-0.0158691	0.00784302
5.896	-0.012207	0.00787964
5.898	-0.0146484	0.00790405
5.9	-0.0115967	0.0079834
5.902	-0.0164795	0.00811768
5.904	-0.00976563	0.00811768
5.906	-0.00976563	0.00814819
5.908	-0.0128174	0.00823364
5.91	-0.0128174	0.00830078
5.912	-0.0146484	0.00837402
5.914	-0.020752	0.00854492
5.916	-0.0146484	0.00859985
5.918	-0.012207	0.00863647
5.92	-0.0195313	0.00872803
5.922	-0.0140381	0.00877075
5.924	-0.0183105	0.00886841
5.926	-0.0115967	0.00892334
5.928	-0.010376	0.00897827
5.93	-0.0177002	0.00906982
5.932	-0.0195313	0.00921021
5.934	-0.00854492	0.00927124
5.936	0.00793457	0.00935059
5.938	-0.0152588	0.00946655
5.94	-0.0195313	0.00965576
5.942	-0.00549316	0.00968628
5.944	-0.00244141	0.00968018
5.946	-0.00793457	0.0097229
5.948	-0.0128174	0.00975952
5.95	-0.010376	0.00979004
5.952	-0.0128174	0.0098938
5.954	-0.0158691	0.00991211
5.956	-0.00976563	0.0098877
5.958	-0.00854492	0.0098877
5.96	-0.0189209	0.00994263
5.962	-0.0109863	0.00997314
5.964	-0.00915527	0.0100464
5.966	-0.00976563	0.0101318
5.968	-0.0146484	0.010199
5.97	-0.0140381	0.01026
5.972	-0.012207	0.0103516
5.974	-0.0109863	0.0104614
5.976	-0.00671387	0.0105042
5.978	-0.0012207	0.0104797
5.98	-0.0250244	0.010675
5.982	-0.0128174	0.0107422
5.984	-0.00854492	0.0107788
5.986	-0.0115967	0.0108337
5.988	-0.0158691	0.0109253
5.99	-0.0170898	0.0109924
5.992	-0.020752	0.0111694
5.994	-0.0134277	0.0112732
5.996	-0.00854492	0.0112793
5.998	-0.0115967	0.0113342
6	-0.0146484	0.0114197
6.002	-0.00427246	0.0114075
6.004	-0.00610352	0.0114197
6.006	-0.0115967	0.0114563
6.008	-0.00793457	0.0114807
6.01	-0.00854492	0.0115051
6.012	-0.00976563	0.0115173
6.014	-0.00976563	0.0115234
6.016	-0.00976563	0.0115356
6.018	-0.012207	0.0115784
6.02	-0.0128174	0.0116455
6.022	-0.00854492	0.0116333
6.024	-0.0109863	0.0116943
6.026	-0.012207	0.011731
6.028	-0.0128174	0.0117493
6.03	-0.0128174	0.0118103
6.032	-0.0140381	0.0119385
6.034	-0.0140381	0.0119568
6.036	-0.0134277	0.0119873
6.038	-0.0140381	0.0120483
6.04	-0.0170898	0.0121582
6.042	0.00366211	0.0121033
6.044	-0.00854492	0.0120972
6.046	-0.0189209	0.012207
6.048	-0.00427246	0.0121765
6.05	-0.00854492	0.0122192
6.052	-0.00854492	0.012207
6.054	-0.000610352	0.0120972
6.056	-0.010376	0.0121277
6.058	-0.0140381	0.0121887
6.06	-0.00854492	0.0121521
6.062	-0.00366211	0.0120544
6.064	-0.00915527	0.0120117
6.066	-0.00793457	0.0119751
6.068	-0.00793457	0.0119507
6.07	-0.00732422	0.0119141
6.072	-0.00793457	0.0118896
6.074	-0.00976563	0.0118896
6.076	-0.00976563	0.0118774
6.078	-0.00793457	0.0118713
6.08	-0.00793457	0.0118347
6.082	-0.00854492	0.0117676
6.084	-0.00915527	0.0117371
6.086	-0.00732422	0.0116516
6.088	-0.00610352	0.0115295
6.09	-0.00305176	0.0113831
6.092	-0.00366211	0.0112122
6.094	-0.00610352	0.0111145
6.096	0.00610352	0.0110535
6.098	-0.00366211	0.0109436
6.1	-0.0170898	0.0109985
6.102	-0.00183105	0.0108521
6.104	-0.00244141	0.0107788
6.106	-0.0109863	0.010791
6.108	-0.0146484	0.0108093
6.11	-0.0140381	0.0108215
6.112	-0.0115967	0.010791
6.114	-0.0140381	0.0107239
6.116	-0.0140381	0.0107178
6.118	-0.0134277	0.01073
6.12	-0.010376	0.0106384
6.122	-0.0134277	0.0106323
6.124	-0.0213623	0.0106628
6.126	-0.0012207	0.0105591
6.128	-0.0140381	0.0105957
6.13	-0.0164795	0.0105835
6.132	-0.00915527	0.0104797
6.134	-0.00732422	0.0104675
6.136	-0.0115967	0.0105042
6.138	-0.0109863	0.0104614
6.14	-0.0109863	0.010376
6.142	-0.00915527	0.0104126
6.144	-0.0109863	0.010498
6.146	-0.0109863	0.0105286
6.148	-0.0134277	0.0105347
6.15	-0.0115967	0.0105469
6.152	-0.00854492	0.0105042
6.154	-0.0128174	0.0104736
6.156	-0.0158691	0.0105347
6.158	-0.0115967	0.0105652
6.16	-0.0115967	0.0104919
6.162	-0.0134277	0.0105164
6.164	-0.0146484	0.0105713
6.166	-0.0152588	0.0106262
6.168	-0.0128174	0.0106079
6.17	-0.0134277	0.0106018
6.172	-0.0115967	0.0105957
6.174	-0.0128174	0.010614
6.176	-0.0140381	0.0106873
6.178	-0.00854492	0.0107605
6.18	-0.00732422	0.0105835
6.182	-0.00488281	0.0105042
6.184	-0.00732422	0.0104919
6.186	-0.0128174	0.0105042
6.188	-0.00671387	0.0104126
6.19	-0.00610352	0.0103027
6.192	-0.010376	0.010199
6.194	-0.012207	0.0101868
6.196	-0.0152588	0.0102539
6.198	-0.0152588	0.0102905
6.2	-0.00549316	0.010199
6.202	-0.010376	0.01026
6.204	-0.0128174	0.0103271
6.206	-0.00976563	0.0103088
6.208	0.00305176	0.01026
6.21	0.00244141	0.010199
6.212	-0.0183105	0.0102844
6.214	-0.00793457	0.0102661
6.216	-0.00488281	0.0102173
6.218	-0.00915527	0.0101868
6.22	-0.0201416	0.01026
6.222	-0.0195313	0.0103699
6.224	-0.010376	0.0103638
6.226	-0.0164795	0.0104065
6.228	-0.0146484	0.0104248
6.23	-0.0134277	0.0104309
6.232	-0.0158691	0.0104492
6.234	-0.00915527	0.0104004
6.236	-0.012207	0.0103882
6.238	-0.0128174	0.010376
6.24	-0.012207	0.0103271
6.242	-0.012207	0.0104126
6.244	-0.0134277	0.0104614
6.246	-0.0115967	0.0103882
6.248	-0.0109863	0.0104553
6.25	-0.0109863	0.0104797
6.252	-0.00915527	0.0104858
6.254	-0.0134277	0.010614
6.256	-0.00854492	0.0105957
6.258	-0.010376	0.0105591
6.26	-0.00854492	0.0105591
6.262	-0.0164795	0.0106873
6.264	-0.010376	0.0106995
6.266	-0.00732422	0.0106934
6.268	-0.00793457	0.0106934
6.27	-0.0128174	0.0107483
6.272	-0.0115967	0.0107849
6.274	-0.0134277	0.0108215
6.276	-0.00366211	0.0107605
6.278	-0.010376	0.0107849
6.28	-0.0189209	0.0108948
6.282	-0.0140381	0.0109497
6.284	-0.0128174	0.0109863
6.286	-0.00549316	0.010968
6.288	-0.0109863	0.0110168
6.29	-0.0128174	0.0111145
6.292	-0.0109863	0.0111877
6.294	-0.00366211	0.0111633
6.296	-0.00305176	0.0111328
6.298	-0.00671387	0.0111633
6.3	-0.00915527	0.011084
6.302	-0.00305176	0.0110962
6.304	-0.00244141	0.0110962
6.306	-0.010376	0.0110901
6.308	-0.00915527	0.0110352
6.31	-0.00549316	0.0109497
6.312	0.00305176	0.0108643
6.314	-0.0146484	0.0108704
6.316	-0.0134277	0.0108643
6.318	-0.00488281	0.0107788
6.32	-0.00793457	0.0107544
6.322	-0.0183105	0.0108032
6.324	-0.0140381	0.01073
6.326	-0.00976563	0.0108154
6.328	-0.0134277	0.0108093
6.33	-0.0164795	0.0108093
6.332	-0.0115967	0.0108337
6.334	-0.00305176	0.010791
6.336	-0.00976563	0.0107727
6.338	-0.0128174	0.010791
6.34	-0.0012207	0.0106934
6.342	0.00244141	0.0106262
6.344	-0.0201416	0.0107178
6.346	-0.0134277	0.0107422
6.348	-0.00366211	0.0106445
6.35	-0.0152588	0.0106812
6.352	-0.0195313	0.010791
6.354	-0.0109863	0.0107727
6.356	-0.0134277	0.0107483
6.358	-0.0231934	0.0108643
6.36	-0.0128174	0.0108765
6.362	-0.00488281	0.010791
6.364	-0.010376	0.0107483
6.366	-0.0158691	0.0107544
6.368	-0.00671387	0.0106934
6.37	-0.00793457	0.0106384
6.372	-0.00976563	0.0106201
6.374	-0.00854492	0.0105774
6.376	-0.00671387	0.0105042
6.378	-0.0109863	0.0105286
6.38	-0.0115967	0.0105713
6.382	-0.0115967	0.0106384
6.384	-0.0115967	0.0106812
6.386	-0.0115967	0.0106689
6.388	-0.012207	0.0107239
6.39	-0.0140381	0.0108032
6.392	-0.0146484	0.0108459
6.394	-0.0146484	0.0108704
6.396	-0.0134277	0.0108521
6.398	-0.0170898	0.0108704
6.4	-0.010376	0.0109192
6.402	-0.0128174	0.0109436
6.404	-0.00976563	0.0109131
6.406	-0.0158691	0.0109741
6.408	-0.012207	0.0110657
6.41	-0.0109863	0.0111511
6.412	-0.00915527	0.0110596
6.414	-0.00854492	0.0110657
6.416	-0.012207	0.0111389
6.418	-0.00427246	0.0110901
6.42	-0.0115967	0.0110046
6.422	-0.00732422	0.0108826
6.424	-0.010376	0.0108826
6.426	-0.022583	0.0109436
6.428	-0.000610352	0.0108032
6.43	-0.0140381	0.0108093
6.432	-0.0213623	0.0108643
6.434	-0.0109863	0.0108826
6.436	-0.0170898	0.0109314
6.438	-0.0183105	0.0109863
6.44	-0.020752	0.0110718
6.442	-0.0109863	0.0110596
6.444	-0.012207	0.0110474
6.446	-0.0201416	0.0111328
6.448	-0.0170898	0.0111938
6.45	-0.0170898	0.0112549
6.452	-0.0152588	0.0113159
6.454	-0.0177002	0.0113586
6.456	-0.0128174	0.0114014
6.458	-0.0177002	0.0114746
6.46	-0.0164795	0.011554
6.462	-0.0177002	0.0115662
6.464	-0.0128174	0.0115906
6.466	-0.0183105	0.0117004
6.468	-0.0152588	0.0117737
6.47	-0.0177002	0.0118225
6.472	-0.0183105	0.0118896
6.474	-0.0164795	0.0119202
6.476	-0.0170898	0.0120544
6.478	-0.00732422	0.0120239
6.48	-0.0134277	0.011969
6.482	-0.0213623	0.0120422
6.484	-0.0128174	0.0120422
6.486	-0.0146484	0.0121338
6.488	-0.0109863	0.0121338
6.49	-0.0128174	0.0121338
6.492	-0.0177002	0.0122009
6.494	-0.00671387	0.0122314
6.496	-0.0140381	0.0123413
6.498	-0.0244141	0.0125183
6.5	-0.00976563	0.0125244
6.502	-0.00183105	0.0125122
6.504	-0.0146484	0.0126343
6.506	-0.0177002	0.0127075
6.508	-0.012207	0.012738
6.51	-0.0164795	0.0128479
6.512	-0.0128174	0.0129456
6.514	-0.00793457	0.0128784
6.516	-0.0152588	0.0128967
6.518	-0.0134277	0.0129822
6.52	-0.0146484	0.0130493
6.522	-0.0134277	0.0130005
6.524	-0.0134277	0.0129944
6.526	-0.00976563	0.0129944
6.528	-0.010376	0.0129639
6.53	-0.0128174	0.0129272
6.532	-0.0158691	0.01297
6.534	-0.00793457	0.0130188
6.536	-0.00976563	0.0130188
6.538	-0.0115967	0.0130066
6.54	-0.00732422	0.0130676
6.542	-0.00732422	0.0131165
6.544	-0.0115967	0.013031
6.546	-0.00915527	0.0129883
6.548	-0.00732422	0.0130249
6.55	-0.00915527	0.0129639
6.552	-0.0134277	0.0129028
6.554	-0.00854492	0.0128784
6.556	-0.010376	0.0128479
6.558	-0.0158691	0.0127747
6.56	-0.0152588	0.0127991
6.562	-0.0115967	0.0128662
6.564	-0.0152588	0.012915
6.566	-0.010376	0.0128601
6.568	-0.0146484	0.0129395
6.57	-0.0146484	0.0130066
6.572	-0.012207	0.013031
6.574	-0.00915527	0.0130371
6.576	-0.00793457	0.0130493
6.578	-0.00793457	0.0130188
6.58	-0.00610352	0.0129639
6.582	-0.0189209	0.0130371
6.584	-0.00915527	0.0130127
6.586	-0.00610352	0.0129578
6.588	-0.012207	0.0129578
6.59	-0.0152588	0.01297
6.592	-0.0140381	0.0129639
6.594	-0.0164795	0.0129822
6.596	-0.00732422	0.0129211
6.598	-0.0109863	0.0128601
6.6	-0.0109863	0.0128662
6.602	-0.010376	0.0128418
6.604	-0.0115967	0.0128601
6.606	-0.0128174	0.0128296
6.608	-0.00732422	0.0127808
6.61	-0.00732422	0.0127441
6.612	-0.00793457	0.0127319
6.614	-0.0170898	0.0128174
6.616	-0.0115967	0.0128113
6.618	-0.010376	0.0128723
6.62	-0.0140381	0.0128967
6.622	-0.00854492	0.0129089
6.624	-0.022583	0.013031
6.626	-0.0134277	0.0129395
6.628	-0.00610352	0.0129944
6.63	-0.0146484	0.0130005
6.632	-0.00793457	0.0128662
6.634	-0.00915527	0.0128479
6.636	-0.00854492	0.0127625
6.638	-0.00549316	0.0126343
6.64	-0.00244141	0.0124512
6.642	-0.00854492	0.0124268
6.644	-0.012207	0.0124268
6.646	-0.0115967	0.0123413
6.648	-0.00549316	0.0122253
6.65	-0.0109863	0.0121643
6.652	-0.0115967	0.0121277
6.654	-0.012207	0.0120728
6.656	-0.012207	0.0120667
6.658	-0.0128174	0.0120178
6.66	-0.0134277	0.0119873
6.662	-0.00244141	0.0118347
6.664	-0.00244141	0.011731
6.666	-0.0238037	0.0117859
6.668	-0.0164795	0.0117981
6.67	-0.00488281	0.0116699
6.672	-0.0109863	0.0115967
6.674	-0.0183105	0.011615
6.676	-0.0158691	0.0116028
6.678	-0.0195313	0.0117249
6.68	-0.0109863	0.0117004
6.682	-0.0134277	0.0116211
6.684	-0.0115967	0.0116089
6.686	-0.010376	0.0115662
6.688	-0.00915527	0.0115479
6.69	-0.0115967	0.0115356
6.692	-0.0115967	0.0114746
6.694	-0.00976563	0.0115051
6.696	-0.012207	0.0114868
6.698	-0.0177002	0.0114197
6.7	-0.00793457	0.0114014
6.702	-0.00976563	0.0114807
6.704	-0.0134277	0.0114685
6.706	-0.00732422	0.0113647
6.708	-0.0115967	0.0113586
6.71	-0.0244141	0.011438
6.712	-0.00244141	0.0113342
6.714	-0.00610352	0.0113159
6.716	-0.0140381	0.0113037
6.718	-0.0134277	0.0113037
6.72	-0.0115967	0.0112732
6.722	-0.00732422	0.0112122
6.724	-0.00488281	0.0111267
6.726	-0.00610352	0.0110901
6.728	-0.00793457	0.0110657
6.73	-0.00854492	0.0110229
6.732	-0.00854492	0.0109497
6.734	-0.00854492	0.0109558
6.736	-0.012207	0.0109802
6.738	-0.00671387	0.0109314
6.74	-0.00793457	0.0109375
6.742	-0.00854492	0.0109497
6.744	-0.00732422	0.010907
6.746	-0.00854492	0.0109009
6.748	-0.010376	0.0109314
6.75	-0.00610352	0.0109009
6.752	-0.00793457	0.0108459
6.754	-0.00671387	0.0108276
6.756	-0.00427246	0.0107666
6.758	-0.0134277	0.0107422
6.76	-0.00732422	0.0106628
6.762	-0.00427246	0.0105896
6.764	-0.00610352	0.010498
6.766	-0.00793457	0.0104736
6.768	-0.00793457	0.0104065
6.77	-0.00915527	0.0103516
6.772	-0.00915527	0.010321
6.774	-0.00793457	0.0103088
6.776	-0.00793457	0.0103088
6.778	-0.00305176	0.01026
6.78	-0.00610352	0.01026
6.782	-0.00488281	0.0101196
6.784	-0.00183105	0.0100464
6.786	-0.00488281	0.0100342
6.788	-0.00305176	0.00994263
6.79	0.00244141	0.00981445
6.792	-0.00854492	0.00975952
6.794	-0.00488281	0.00964355
6.796	-0.00549316	0.00962524
6.798	-0.00793457	0.00959473
6.8	-0.00549316	0.00953979
6.802	-0.00305176	0.00946655
6.804	-0.00793457	0.00942993
6.806	-0.00854492	0.00938721
6.808	-0.00305176	0.00934448
6.81	-0.012207	0.00939331
6.812	-0.00793457	0.00939331
6.814	0.00793457	0.00930176
6.816	0.00183105	0.0092041
6.818	-0.0183105	0.00928345
6.82	-0.00305176	0.00917358
6.822	0.00793457	0.00916748
6.824	-0.0146484	0.00908813
6.826	-0.00366211	0.00899048
6.828	-0.00976563	0.0090271
6.83	-0.00610352	0.00894165
6.832	-0.0128174	0.00899048
6.834	-0.0115967	0.00901489
6.836	-0.00915527	0.009021
6.838	-0.00549316	0.009021
6.84	-0.00610352	0.00905762
6.842	-0.00366211	0.00900879
6.844	-0.00488281	0.00893555
6.846	-0.00427246	0.0088623
6.848	-0.00488281	0.0088562
6.85	-0.00305176	0.00877686
6.852	-0.00732422	0.00873413
6.854	-0.00610352	0.0086731
6.856	-0.00488281	0.00859985
6.858	-0.00549316	0.00852661
6.86	-0.00427246	0.00843506
6.862	-0.00305176	0.00844116
6.864	-0.00610352	0.00847778
6.866	-0.00427246	0.00828247
6.868	-0.00427246	0.0081604
6.87	-0.00610352	0.00817261
6.872	0	0.00806274
6.874	-0.00183105	0.00789795
6.876	-0.0128174	0.00786743
6.878	-0.00366211	0.00770874
6.88	-0.00549316	0.00765381
6.882	-0.0012207	0.00753174
6.884	-0.00183105	0.00743408
6.886	-0.00488281	0.00737915
6.888	-0.00305176	0.00731812
6.89	-0.00488281	0.00725098
6.892	-0.000610352	0.00714111
6.894	0.000610352	0.00704956
6.896	-0.00183105	0.0069458
6.898	-0.00183105	0.00678711
6.9	0.000610352	0.00671387
6.902	0.00976563	0.00671387
6.904	-0.00244141	0.006604
6.906	-0.020752	0.00673828
6.908	0.00488281	0.00667114
6.91	0.000610352	0.00643311
6.912	-0.00671387	0.00647583
6.914	-0.00915527	0.00650635
6.916	-0.0128174	0.00649414
6.918	-0.00854492	0.00644531
6.92	-0.00671387	0.00639648
6.922	-0.00183105	0.00634155
6.924	-0.00305176	0.00632324
6.926	-0.00854492	0.00634766
6.928	-0.0115967	0.00638428
6.93	-0.00183105	0.00631714
6.932	-0.00976563	0.00632935
6.934	-0.00427246	0.00628662
6.936	-0.0134277	0.00629883
6.938	-0.0109863	0.00634155
6.94	-0.00427246	0.00630493
6.942	-0.00671387	0.00628662
6.944	-0.00976563	0.00631104
6.946	-0.0158691	0.00638428
6.948	-0.00610352	0.00634155
6.95	-0.00610352	0.00634155
6.952	-0.0158691	0.0064209
6.954	-0.00366211	0.00639038
6.956	-0.0134277	0.00648193
6.958	-0.0170898	0.00651855
6.96	-0.00305176	0.00647583
6.962	-0.00793457	0.00651245
6.964	-0.012207	0.00657349
6.966	-0.00244141	0.00651855
6.968	-0.000610352	0.00644531
6.97	-0.0134277	0.00648804
6.972	-0.00915527	0.00648804
6.974	-0.00305176	0.00643921
6.976	-0.00732422	0.00643311
6.978	-0.00915527	0.00649414
6.98	-0.010376	0.00653687
6.982	-0.0128174	0.00661621
6.984	-0.0134277	0.00673218
6.986	-0.00549316	0.00673828
6.988	0	0.00670776
6.99	-0.0177002	0.00686035
6.992	-0.00732422	0.00684814
6.994	-0.00183105	0.00681763
6.996	-0.00976563	0.00686035
6.998	-0.00915527	0.00687256
7	-0.00549316	0.00687256
7.002	-0.00610352	0.00690308
7.004	-0.00793457	0.00690308
7.006	-0.0115967	0.00693359
7.008	-0.012207	0.00702515
7.01	-0.00183105	0.00692139
7.012	-0.00610352	0.00690308
7.014	-0.00549316	0.00687866
7.016	-0.0134277	0.00699463
7.018	-0.00366211	0.00684814
7.02	-0.00671387	0.00688477
7.022	-0.00305176	0.00683594
7.024	-0.00793457	0.0067688
7.026	-0.00671387	0.00679932
7.028	-0.000610352	0.00670776
7.03	-0.00610352	0.00670776
7.032	-0.00427246	0.00662231
7.034	-0.0012207	0.00651855
7.036	-0.010376	0.00653076
7.038	0.00244141	0.00650024
7.04	0.00549316	0.00649414
7.042	-0.00610352	0.00651855
7.044	-0.0140381	0.00661011
7.046	-0.00305176	0.0065979
7.048	-0.00488281	0.0065979
7.05	-0.00854492	0.00665283
7.052	-0.00610352	0.00664063
7.054	0.000610352	0.00658569
7.056	-0.00427246	0.00657959
7.058	-0.0140381	0.00666504
7.06	-0.0012207	0.00663452
7.062	0.00183105	0.00662231
7.064	-0.00305176	0.0065918
7.066	-0.00244141	0.00657349
7.068	-0.00610352	0.0065918
7.07	-0.00305176	0.00656128
7.072	-0.00244141	0.00658569
7.074	-0.00244141	0.0065918
7.076	-0.00549316	0.00651855
7.078	-0.00366211	0.00651855
7.08	-0.00427246	0.00650635
7.082	-0.00854492	0.00657959
7.084	-0.00976563	0.00665894
7.086	-0.00488281	0.00665894
7.088	-0.00366211	0.00666504
7.09	-0.00793457	0.00669556
7.092	-0.012207	0.00681152
7.094	-0.0012207	0.00681763
7.096	0.00183105	0.00681763
7.098	-0.00610352	0.00686035
7.1	-0.00244141	0.00687866
7.102	-0.00427246	0.00682373
7.104	-0.00671387	0.00686646
7.106	-0.00793457	0.00673828
7.108	-0.00366211	0.00672607
7.11	-0.00671387	0.00678711
7.112	-0.0109863	0.00682983
7.114	-0.010376	0.00684204
7.116	-0.00732422	0.00678711
7.118	-0.010376	0.00680542
7.12	-0.00732422	0.00681152
7.122	-0.00549316	0.00684814
7.124	-0.00671387	0.00688477
7.126	-0.00549316	0.00685425
7.128	-0.00549316	0.00679321
7.13	-0.00671387	0.00684204
7.132	-0.00549316	0.00679932
7.134	-0.000610352	0.0067627
7.136	0.00183105	0.00664673
7.138	-0.010376	0.00664063
7.14	-0.0109863	0.00670776
7.142	-0.00366211	0.00667725
7.144	-0.00366211	0.00661621
7.146	-0.010376	0.00656128
7.148	-0.0109863	0.00661011
7.15	-0.00488281	0.0065979
7.152	-0.00549316	0.00649414
7.154	-0.00793457	0.00653687
7.156	-0.00976563	0.00650024
7.158	-0.010376	0.00643311
7.16	-0.00610352	0.00646362
7.162	-0.0128174	0.00651245
7.164	-0.012207	0.00651245
7.166	-0.00305176	0.00651855
7.168	-0.00671387	0.00657959
7.17	-0.0115967	0.00656128
7.172	-0.00854492	0.00655518
7.174	0.00305176	0.00655518
7.176	0.00305176	0.00651245
7.178	-0.000610352	0.006427
7.18	0.00366211	0.00635986
7.182	0.000610352	0.00623779
7.184	-0.00305176	0.00613403
7.186	0	0.0060791
7.188	-0.000610352	0.00608521
7.19	-0.00427246	0.00595093
7.192	-0.010376	0.00598145
7.194	-0.000610352	0.00596924
7.196	-0.00183105	0.00588989
7.198	-0.00671387	0.00586548
7.2	-0.00793457	0.00588989
7.202	-0.00610352	0.00588989
7.204	-0.00427246	0.00585327
7.206	-0.00183105	0.00575562
7.208	-0.0140381	0.00577393
7.21	-0.00976563	0.00585327
7.212	-0.00488281	0.00584106
7.214	-0.00671387	0.00585327
7.216	-0.00671387	0.00578613
7.218	-0.0170898	0.00592041
7.22	-0.00976563	0.00595093
7.222	-0.00305176	0.00595093
7.224	-0.00671387	0.00593872
7.226	-0.0134277	0.00600586
7.228	-0.00366211	0.00603638
7.23	0.0012207	0.00598755
7.232	-0.00671387	0.00601196
7.234	-0.0170898	0.00617065
7.236	-0.00915527	0.00615845
7.238	-0.00305176	0.00616455
7.24	-0.00732422	0.00618286
7.242	-0.0177002	0.00629883
7.244	-0.0164795	0.00632324
7.246	-0.00854492	0.00637817
7.248	-0.0109863	0.00643921
7.25	-0.0134277	0.00648804
7.252	-0.0201416	0.00662842
7.254	-0.00976563	0.00671997
7.256	-0.00488281	0.00672607
7.258	-0.0170898	0.00675659
7.26	-0.00915527	0.00683594
7.262	-0.00671387	0.00688477
7.264	-0.010376	0.00695801
7.266	-0.00732422	0.00700684
7.268	-0.00671387	0.00701294
7.27	-0.00488281	0.00703125
7.272	-0.00610352	0.00706787
7.274	-0.00915527	0.00713501
7.276	-0.010376	0.00718384
7.278	-0.00244141	0.00717163
7.28	-0.0109863	0.00723877
7.282	-0.020752	0.00736084
7.284	-0.010376	0.00736694
7.286	-0.00305176	0.00734863
7.288	-0.0170898	0.00748291
7.29	-0.0134277	0.00753784
7.292	-0.0109863	0.00752563
7.294	-0.00976563	0.00761108
7.296	-0.00244141	0.00761719
7.298	-0.00671387	0.00762329
7.3	-0.012207	0.00772095
7.302	0.00305176	0.00770874
7.304	-0.00366211	0.00767822
7.306	-0.0128174	0.00772705
7.308	-0.00793457	0.00776978
7.31	-0.00671387	0.00776978
7.312	-0.00976563	0.00775757
7.314	-0.00976563	0.00775146
7.316	-0.010376	0.00778198
7.318	-0.0134277	0.0078125
7.32	-0.00854492	0.00782471
7.322	-0.00244141	0.00779419
7.324	-0.00915527	0.0078186
7.326	-0.00793457	0.00784302
7.328	-0.00671387	0.00785522
7.33	-0.00671387	0.00785522
7.332	-0.00793457	0.00787964
7.334	-0.00244141	0.00789795
7.336	-0.0115967	0.00799561
7.338	-0.00732422	0.00796509
7.34	-0.00244141	0.00787964
7.342	-0.00671387	0.00791016
7.344	-0.00976563	0.00797119
7.346	-0.00976563	0.00796509
7.348	0.00305176	0.00788574
7.35	-0.00793457	0.00791626
7.352	-0.00976563	0.00795898
7.354	-0.00854492	0.00796509
7.356	-0.00488281	0.00791626
7.358	-0.00488281	0.00786133
7.36	-0.0012207	0.0078125
7.362	-0.012207	0.0078064
7.364	-0.0183105	0.00786743
7.366	-0.00732422	0.00791016
7.368	-0.010376	0.00794678
7.37	-0.0109863	0.00794067
7.372	-0.0170898	0.00802612
7.374	-0.020752	0.00820313
7.376	-0.0109863	0.00828247
7.378	-0.0109863	0.00838623
7.38	-0.012207	0.00847168
7.382	-0.00793457	0.00854492
7.384	-0.0109863	0.00862427
7.386	-0.00305176	0.00865479
7.388	-0.00854492	0.00873413
7.39	-0.010376	0.00879517
7.392	-0.00366211	0.00872803
7.394	-0.00427246	0.00876465
7.396	-0.00488281	0.00879517
7.398	-0.00610352	0.00878906
7.4	-0.00793457	0.00878906
7.402	-0.00549316	0.00878296
7.404	-0.00488281	0.00878906
7.406	-0.00305176	0.00880127
7.408	-0.0109863	0.00877075
7.41	-0.00732422	0.00874634
7.412	-0.00549316	0.00875244
7.414	-0.00671387	0.00875244
7.416	-0.010376	0.00878906
7.418	-0.00549316	0.0086731
7.42	-0.00671387	0.00864258
7.422	-0.00732422	0.0086853
7.424	-0.00549316	0.0086731
7.426	-0.00549316	0.00859375
7.428	-0.00793457	0.00863647
7.43	-0.00610352	0.0086853
7.432	-0.00793457	0.00869751
7.434	-0.0012207	0.00853882
7.436	0.0140381	0.00858765
7.438	-0.0109863	0.00866699
7.44	-0.00915527	0.0086853
7.442	0.00488281	0.00855713
7.444	-0.00610352	0.00845337
7.446	-0.00610352	0.00842896
7.448	-0.010376	0.00842285
7.45	-0.00671387	0.00835571
7.452	-0.012207	0.00827637
7.454	-0.0109863	0.00828857
7.456	-0.00854492	0.0083252
7.458	-0.00366211	0.00819092
7.46	-0.00305176	0.00812988
7.462	-0.00610352	0.00812378
7.464	-0.00366211	0.00805664
7.466	-0.0128174	0.00811157
7.468	-0.00976563	0.00814209
7.47	0.000610352	0.00809937
7.472	-0.00610352	0.00809937
7.474	-0.0109863	0.00811768
7.476	-0.0109863	0.00812378
7.478	0.000610352	0.00810547
7.48	-0.000610352	0.00800171
7.482	-0.00305176	0.00782471
7.484	-0.00183105	0.00773926
7.486	-0.00183105	0.00772705
7.488	-0.00610352	0.00761719
7.49	0.00427246	0.00752563
7.492	0.00366211	0.00745239
7.494	-0.00305176	0.00738525
7.496	-0.00549316	0.00741577
7.498	-0.000610352	0.00735474
7.5	0.00671387	0.0072998
7.502	0.00549316	0.00732422
7.504	-0.00549316	0.00734253
7.506	0.00183105	0.00723267
7.508	0.00671387	0.00722046
7.51	-0.00793457	0.00723267
7.512	0.00305176	0.00716553
7.514	0.00549316	0.0071228
7.516	-0.010376	0.0071228
7.518	-0.00671387	0.00705566
7.52	-0.00549316	0.00702515
7.522	0.00183105	0.00701904
7.524	-0.00305176	0.00695801
7.526	-0.00427246	0.00692139
7.528	-0.00427246	0.00689697
7.53	-0.00366211	0.00686646
7.532	0.00366211	0.00682373
7.534	0.00305176	0.00682983
7.536	-0.00183105	0.00673218
7.538	-0.00610352	0.00671997
7.54	0.0140381	0.00683594
7.542	0.000610352	0.0067749
7.544	0.000610352	0.00668335
7.546	-0.000610352	0.0065918
7.548	-0.00305176	0.0065918
7.55	0.00671387	0.00657959
7.552	-0.00610352	0.00654297
7.554	-0.00488281	0.00650635
7.556	0.00244141	0.00648193
7.558	-0.00244141	0.00645752
7.56	-0.00366211	0.00648193
7.562	-0.00244141	0.00638428
7.564	-0.00183105	0.00621948
7.566	0.00183105	0.00616455
7.568	-0.00366211	0.00609741
7.57	-0.00244141	0.00601196
7.572	-0.00488281	0.00588989
7.574	-0.00305176	0.00571289
7.576	0.00976563	0.00570068
7.578	0.00366211	0.00562744
7.58	0.000610352	0.00551147
7.582	-0.000610352	0.00543823
7.584	0.00427246	0.00537109
7.586	0.00854492	0.00542603
7.588	0.00671387	0.00540771
7.59	0.00732422	0.0053772
7.592	-0.00854492	0.00542603
7.594	-0.00305176	0.00541382
7.596	0.00549316	0.00541992
7.598	0.00366211	0.00539551
7.6	0.00305176	0.00534668
7.602	-0.00305176	0.00532227
7.604	0	0.00527344
7.606	0.00549316	0.00529785
7.608	-0.00244141	0.0052124
7.61	0	0.00513916
7.612	0.00488281	0.00513306
7.614	-0.00427246	0.00510864
7.616	-0.00366211	0.0050415
7.618	0.00183105	0.00500488
7.62	-0.010376	0.0050415
7.622	-0.00244141	0.00499268
7.624	0.00366211	0.00497437
7.626	-0.00183105	0.00493774
7.628	-0.000610352	0.0048645
7.63	0.000610352	0.00480957
7.632	-0.000610352	0.00473633
7.634	0.00732422	0.00479736
7.636	0.00244141	0.0046814
7.638	0.00183105	0.00458984
7.64	0.00244141	0.00452271
7.642	0.0152588	0.00462646
7.644	0.00244141	0.00458984
7.646	-0.00915527	0.00462036
7.648	0.00610352	0.00457764
7.65	0.0115967	0.00462646
7.652	-0.00244141	0.00452881
7.654	-0.00549316	0.00447388
7.656	-0.00183105	0.00440674
7.658	0.00366211	0.00440674
7.66	0	0.00437622
7.662	-0.00305176	0.0043457
7.664	0.0012207	0.00432129
7.666	0.00244141	0.00421753
7.668	0.00427246	0.0041626
7.67	0.00427246	0.00419922
7.672	0.00427246	0.00418091
7.674	-0.0012207	0.00408325
7.676	0.00183105	0.0039917
7.678	0.00366211	0.00402222
7.68	0.00183105	0.00403442
7.682	-0.000610352	0.00401001
7.684	0.000610352	0.0039978
7.686	-0.00366211	0.00401611
7.688	-0.0012207	0.00396729
7.69	-0.00305176	0.00395508
7.692	-0.00366211	0.00395508
7.694	0.00793457	0.00400391
7.696	-0.0012207	0.00396118
7.698	0.00488281	0.00400391
7.7	0.00488281	0.0039856
7.702	-0.0170898	0.00410156
7.704	0.012207	0.0041687
7.706	-0.00183105	0.0041687
7.708	-0.00427246	0.00414429
7.71	-0.000610352	0.00407104
7.712	-0.0146484	0.00418701
7.714	-0.020752	0.0043396
7.716	-0.0115967	0.00435181
7.718	-0.000610352	0.00429077
7.72	-0.0158691	0.00439453
7.722	-0.0189209	0.00456543
7.724	-0.00915527	0.00462646
7.726	-0.0140381	0.00472412
7.728	-0.00366211	0.00471802
7.73	-0.00793457	0.00476074
7.732	-0.00549316	0.00477905
7.734	-0.00793457	0.00482788
7.736	-0.0115967	0.00492554
7.738	-0.0012207	0.00487671
7.74	-0.00610352	0.00479736
7.742	-0.0140381	0.00493164
7.744	-0.0134277	0.00505981
7.746	-0.00610352	0.00511475
7.748	-0.00488281	0.00513306
7.75	-0.0128174	0.00519409
7.752	-0.010376	0.00523682
7.754	-0.00244141	0.0052124
7.756	-0.00732422	0.00526123
7.758	-0.00732422	0.00531006
7.76	-0.00915527	0.00536499
7.762	-0.0109863	0.00545044
7.764	-0.00854492	0.00551758
7.766	-0.000610352	0.00550537
7.768	-0.00488281	0.00551758
7.77	-0.0164795	0.00565796
7.772	-0.00366211	0.00564575
7.774	-0.00183105	0.00563354
7.776	-0.00976563	0.00563354
7.778	-0.00610352	0.00565796
7.78	-0.00732422	0.0057251
7.782	-0.00915527	0.00581055
7.784	-0.00915527	0.00585938
7.786	-0.00427246	0.00581665
7.788	-0.00488281	0.00579834
7.79	-0.00488281	0.00577393
7.792	-0.00549316	0.00574341
7.794	-0.00915527	0.00580444
7.796	-0.000610352	0.00575562
7.798	0.00305176	0.00574951
7.8	-0.00732422	0.00579224
7.802	-0.00610352	0.00582275
7.804	0.00366211	0.00585938
7.806	-0.00976563	0.0059021
7.808	-0.00366211	0.00591431
7.81	0.00427246	0.00595703
7.812	0	0.0059082
7.814	0.00427246	0.0059082
7.816	0.00244141	0.005896
7.818	-0.00793457	0.00595703
7.82	0.00427246	0.005896
7.822	0.00244141	0.005896
7.824	0.000610352	0.00586548
7.826	-0.00183105	0.00586548
7.828	-0.00549316	0.00591431
7.83	-0.00427246	0.00595093
7.832	-0.00244141	0.00596924
7.834	-0.00671387	0.00596313
7.836	-0.00427246	0.00598145
7.838	-0.0109863	0.006073
7.84	-0.00671387	0.00611572
7.842	-0.0012207	0.00597534
7.844	-0.00427246	0.00599365
7.846	-0.0115967	0.00601807
7.848	-0.00427246	0.00599976
7.85	-0.00488281	0.00593262
7.852	-0.00854492	0.00599365
7.854	-0.00366211	0.00597534
7.856	0.00183105	0.00597534
7.858	-0.00427246	0.00598145
7.86	-0.00305176	0.00601196
7.862	-0.00793457	0.00606079
7.864	-0.0012207	0.00606079
7.866	-0.00305176	0.00606689
7.868	-0.0115967	0.00614014
7.87	-0.00488281	0.00614624
7.872	0.0012207	0.00611572
7.874	-0.00854492	0.00618896
7.876	-0.0140381	0.00631104
7.878	-0.012207	0.00639648
7.88	-0.00244141	0.00640259
7.882	0.00305176	0.006427
7.884	-0.00244141	0.00644531
7.886	-0.0177002	0.00658569
7.888	-0.00610352	0.00663452
7.89	-0.00427246	0.00664673
7.892	0	0.00661011
7.894	-0.00183105	0.00654907
7.896	-0.0177002	0.00671387
7.898	-0.0109863	0.0067749
7.9	-0.00427246	0.0067688
7.902	-0.00427246	0.00664063
7.904	-0.00915527	0.00661011
7.906	-0.00732422	0.00666504
7.908	-0.00488281	0.00667114
7.91	-0.00976563	0.0067627
7.912	-0.0164795	0.00678101
7.914	0.000610352	0.00657959
7.916	0.00488281	0.00651245
7.918	0.00671387	0.00657349
7.92	0.00976563	0.00651245
7.922	0.0146484	0.00646973
7.924	0.00488281	0.006427
7.926	-0.012207	0.00640869
7.928	0.00610352	0.00643311
7.93	0.022583	0.00657959
7.932	-0.00427246	0.00656738
7.934	-0.00976563	0.00658569
7.936	-0.0311279	0.00678101
7.938	-0.00671387	0.00683594
7.94	-0.0128174	0.00690308
7.942	-0.0128174	0.00689087
7.944	-0.00671387	0.00682373
7.946	0	0.0067627
7.948	-0.0463867	0.00717773
7.95	-0.00549316	0.00710449
7.952	-0.0183105	0.00718384
7.954	-0.0183105	0.00734253
7.956	-0.00183105	0.0072876
7.958	-0.0115967	0.00733032
7.96	-0.0201416	0.00744019
7.962	-0.00427246	0.00737305
7.964	0.00976563	0.00738525
7.966	0.0170898	0.00755005
7.968	-0.00427246	0.00754395
7.97	-0.00488281	0.00742798
7.972	0.0183105	0.00757446
7.974	0.0238037	0.00779419
7.976	-0.00305176	0.00772705
7.978	-0.0280762	0.00794678
7.98	-0.0170898	0.00804443
7.982	-0.0115967	0.00806885
7.984	-0.00549316	0.00803223
7.986	-0.0170898	0.0081604
7.988	0.00427246	0.0081543
7.99	-0.00793457	0.00818481
7.992	-0.00549316	0.00818481
7.994	-0.00915527	0.00818481
7.996	0.00732422	0.00825195
7.998	0.0164795	0.00838623
8	0.00427246	0.00835571
8.002	-0.0128174	0.00842285
8.004	0.00732422	0.00845947
8.006	0.0170898	0.00853271
8.008	-0.00976563	0.00859375
8.01	0.0195313	0.00874634
8.012	0.0146484	0.00889282
8.014	-0.00244141	0.00887451
8.016	-0.0146484	0.00899658
8.018	0.00244141	0.00894165
8.02	-0.00366211	0.00893555
8.022	-0.0146484	0.00905762
8.024	-0.0213623	0.00926514
8.026	-0.012207	0.0093689
8.028	0.012207	0.00943604
8.03	0.00549316	0.00944824
8.032	0.0115967	0.00953979
8.034	-0.00183105	0.00949097
8.036	0.0134277	0.00958252
8.038	0.0384521	0.00985718
8.04	0.0231934	0.010022
8.042	0.0201416	0.0102112
8.044	-0.00427246	0.0102112
8.046	-0.00854492	0.0101807
8.048	0.00793457	0.0102173
8.05	0.00732422	0.0102417
8.052	-0.0317383	0.0104736
8.054	-0.0183105	0.0106201
8.056	-0.022583	0.0108276
8.058	-0.0244141	0.0110291
8.06	-0.00793457	0.0110779
8.062	-0.00183105	0.0110168
8.064	0.0134277	0.0111389
8.066	0.0305176	0.0114136
8.068	0.0311279	0.0116089
8.07	0.0140381	0.0117004
8.072	0.0152588	0.0118408
8.074	0.0109863	0.0118652
8.076	0.0177002	0.0119019
8.078	-0.00305176	0.0118103
8.08	-0.0115967	0.0119019
8.082	-0.0219727	0.0120911
8.084	-0.0152588	0.0122192
8.086	-0.0177002	0.0122192
8.088	-0.00976563	0.0122559
8.09	-0.00854492	0.0122986
8.092	-0.00488281	0.0123474
8.094	0.0341797	0.0126709
8.096	0.0201416	0.0126953
8.098	-0.0140381	0.0127258
8.1	0.0390625	0.0130737
8.102	-0.00732422	0.0131042
8.104	-0.00732422	0.0130859
8.106	-0.0384521	0.0133972
8.108	-0.00976563	0.013446
8.11	-0.0335693	0.0136841
8.112	-0.0500488	0.0140198
8.114	-0.0177002	0.0141907
8.116	-0.0549316	0.0146912
8.118	-0.0189209	0.0148132
8.12	-0.00488281	0.0147644
8.122	0.00549316	0.0146729
8.124	-0.0012207	0.0146362
8.126	-0.00549316	0.0145691
8.128	-0.0164795	0.0146729
8.13	-0.0115967	0.014563
8.132	0.0140381	0.0146606
8.134	-0.000610352	0.0145691
8.136	-0.00305176	0.0142883
8.138	0	0.0142212
8.14	0.0268555	0.0143616
8.142	0.0213623	0.014447
8.144	0.0146484	0.0145264
8.146	0.00732422	0.0145996
8.148	0.032959	0.0144653
8.15	-0.00671387	0.0144775
8.152	-0.000610352	0.0143005
8.154	0.022583	0.0143433
8.156	-0.00427246	0.0143677
8.158	-0.0128174	0.0143799
8.16	0.0311279	0.0144897
8.162	-0.0201416	0.0146484
8.164	-0.00244141	0.0145752
8.166	0.0183105	0.0145874
8.168	-0.00244141	0.0145691
8.17	0.012207	0.0146423
8.172	-0.0146484	0.0146057
8.174	-0.0238037	0.0146057
8.176	0.045166	0.0150269
8.178	0.010376	0.0148499
8.18	-0.0231934	0.0149109
8.182	-0.0390625	0.0151855
8.184	0.0109863	0.0152405
8.186	0.0183105	0.0152527
8.188	-0.000610352	0.0152161
8.19	-0.00366211	0.0151733
8.192	-0.00427246	0.0151611
8.194	-0.00183105	0.0150879
8.196	0.00610352	0.0150757
8.198	0.0164795	0.0150757
8.2	-0.0244141	0.0152771
8.202	-0.0268555	0.0154175
8.204	0.0164795	0.015509
8.206	0.000610352	0.0153442
8.208	-0.0164795	0.0154114
8.21	-0.00244141	0.0152405
8.212	0.0134277	0.0152283
8.214	0.00549316	0.0152588
8.216	0.0537109	0.0156494
8.218	0.0537109	0.0161621
8.22	-0.0213623	0.0163391
8.222	-0.0152588	0.0163452
8.224	0.0384521	0.0165161
8.226	0.0506592	0.0169006
8.228	-0.00976563	0.0168762
8.23	0.00427246	0.016864
8.232	0.0115967	0.016864
8.234	0.00610352	0.0169067
8.236	0.0177002	0.0169495
8.238	0.00671387	0.0166321
8.24	0.00427246	0.0164429
8.242	0.0366211	0.0166077
8.244	0.020752	0.0167725
8.246	-0.00915527	0.0167786
8.248	-0.0195313	0.0168945
8.25	0.0366211	0.0171875
8.252	0.0415039	0.0172852
8.254	0.0335693	0.0174377
8.256	-0.0134277	0.0173462
8.258	0.0195313	0.0172974
8.26	0.0189209	0.0174072
8.262	0.101318	0.0184021
8.264	-0.0665283	0.0189331
8.266	-0.0408936	0.0190369
8.268	0.032959	0.0190552
8.27	-0.0366211	0.019281
8.272	-0.0262451	0.0193909
8.274	-0.0195313	0.0194763
8.276	-0.022583	0.0195251
8.278	-0.0177002	0.0196716
8.28	-0.000610352	0.0195618
8.282	0.0268555	0.0196106
8.284	0.0158691	0.0196167
8.286	0.0158691	0.0195984
8.288	0.045166	0.0199524
8.29	0.0158691	0.0200256
8.292	0.00976563	0.0200745
8.294	0.012207	0.0198547
8.296	-0.00671387	0.0197205
8.298	-0.0152588	0.0197327
8.3	0.0152588	0.0194946
8.302	-0.0292969	0.0197144
8.304	0.00793457	0.0197205
8.306	0.00488281	0.0193848
8.308	-0.0140381	0.0194275
8.31	0.0140381	0.0192322
8.312	0.0317383	0.0190491
8.314	0.043335	0.0193054
8.316	0.0518799	0.0192749
8.318	-0.0183105	0.0192688
8.32	-0.0213623	0.0194336
8.322	0.0463867	0.0198425
8.324	-0.0012207	0.0198425
8.326	-0.0402832	0.0201904
8.328	0.0109863	0.0201355
8.33	-0.00244141	0.0200439
8.332	-0.0366211	0.0202698
8.334	-0.0164795	0.0204285
8.336	-0.0213623	0.0206116
8.338	-0.0140381	0.020752
8.34	-0.00366211	0.02052
8.342	0.00732422	0.0203796
8.344	0.00915527	0.0203247
8.346	-0.0213623	0.0204651
8.348	-0.010376	0.0202393
8.35	0.0488281	0.0206604
8.352	0.0109863	0.0207642
8.354	-0.00915527	0.0206299
8.356	0.0189209	0.0207764
8.358	0.0164795	0.020813
8.36	-0.0158691	0.0206604
8.362	0.0317383	0.0207764
8.364	0.0115967	0.0208679
8.366	0.043335	0.0211182
8.368	-0.0189209	0.021283
8.37	0.0366211	0.0215271
8.372	-0.00305176	0.0214111
8.374	0.0158691	0.0213318
8.376	-0.00671387	0.0209473
8.378	-0.022583	0.0210693
8.38	-0.032959	0.021167
8.382	-0.010376	0.0208801
8.384	0.00488281	0.0208191
8.386	-0.0299072	0.0209351
8.388	0.0512695	0.0214417
8.39	0.00732422	0.0214783
8.392	0.0115967	0.0215515
8.394	0.0567627	0.0221008
8.396	0.0683594	0.0227234
8.398	0.0427246	0.0229858
8.4	-0.00976563	0.0228394
8.402	-0.0146484	0.0227173
8.404	0.0396729	0.0229492
8.406	-0.00488281	0.0229919
8.408	-0.0537109	0.0233643
8.41	-0.012207	0.0234619
8.412	0.010376	0.0234314
8.414	0.0109863	0.0234863
8.416	0.00793457	0.0230286
8.418	-0.0170898	0.0226624
8.42	-0.00305176	0.0224792
8.422	-0.00305176	0.0223572
8.424	-0.0134277	0.0221069
8.426	-0.00427246	0.0216431
8.428	0.0213623	0.021759
8.43	-0.00183105	0.0217346
8.432	0.00244141	0.0216431
8.434	-0.00549316	0.021637
8.436	0.0238037	0.021698
8.438	0.00549316	0.0216858
8.44	-0.0354004	0.0219971
8.442	-0.0286865	0.0219177
8.444	0.0506592	0.0222168
8.446	-0.0439453	0.0225647
8.448	0.012207	0.0224915
8.45	-0.0134277	0.0222595
8.452	0.0189209	0.0220337
8.454	0.03479	0.0220459
8.456	0.0897217	0.0228088
8.458	0.0213623	0.0228271
8.46	-0.0366211	0.0230042
8.462	-0.0134277	0.0221252
8.464	0.0115967	0.0215759
8.466	-0.0646973	0.021814
8.468	-0.0012207	0.0214966
8.47	-0.010376	0.0212341
8.472	-0.078125	0.0217529
8.474	-0.00976563	0.0216553
8.476	-0.0109863	0.0215393
8.478	-0.0366211	0.0217285
8.48	0	0.0217224
8.482	-0.0115967	0.0215698
8.484	-0.032959	0.0217407
8.486	-0.0616455	0.0221985
8.488	0.00854492	0.0218323
8.49	0.0213623	0.0218872
8.492	-0.0292969	0.0220825
8.494	-0.0640869	0.0226013
8.496	-0.0189209	0.0227234
8.498	0.0323486	0.0228943
8.5	-0.0177002	0.0229187
8.502	0.0372314	0.022998
8.504	-0.0115967	0.0230347
8.506	-0.0152588	0.0231384
8.508	-0.022583	0.0232239
8.51	0.0158691	0.0232422
8.512	-0.0421143	0.0233459
8.514	0.00183105	0.0229309
8.516	0.0402832	0.0228149
8.518	0.0250244	0.0228821
8.52	0.0482178	0.0231506
8.522	0.0378418	0.0230652
8.524	0.123901	0.024292
8.526	0.0463867	0.024353
8.528	0.0598145	0.0248413
8.53	0.107422	0.0258911
8.532	0.0354004	0.0258789
8.534	-0.0323486	0.0260376
8.536	-0.00488281	0.0258728
8.538	-0.0213623	0.025946
8.54	-0.0396729	0.0263062
8.542	-0.0189209	0.0264221
8.544	0.00793457	0.0264099
8.546	-0.032959	0.0265259
8.548	-0.0634766	0.0270569
8.55	-0.00610352	0.0266296
8.552	-0.0311279	0.0268311
8.554	-0.0494385	0.0272339
8.556	-0.0299072	0.0273438
8.558	-0.0128174	0.0273071
8.56	0.0177002	0.0273254
8.562	0.00183105	0.0270264
8.564	-0.00488281	0.0269592
8.566	-0.0439453	0.0269653
8.568	0.0274658	0.0270508
8.57	0.0714111	0.0273987
8.572	0.065918	0.0280273
8.574	-0.00488281	0.0279175
8.576	-0.0585938	0.0284363
8.578	0.0421143	0.0286316
8.58	0.0701904	0.0290039
8.582	-0.00671387	0.0289673
8.584	0.0708008	0.0296265
8.586	-0.0140381	0.0294678
8.588	-0.00671387	0.0290222
