¬í	ECG	¤ß¸õ²v
0	-1.09192	0
0.001	-1.09161	0
0.002	-1.0907	0
0.003	-1.08948	0
0.004	-1.08765	0
0.005	-1.08582	0
0.006	-1.08368	0
0.007	-1.08185	0
0.008	-1.08002	0
0.009	-1.07849	0
0.01	-1.07697	0
0.011	-1.07605	0
0.012	-1.07513	0
0.013	-1.07452	0
0.014	-1.07361	0
0.015	-1.07239	0
0.016	-1.07086	0
0.017	-1.06934	0
0.018	-1.0675	0
0.019	-1.06598	0
0.02	-1.06476	0
0.021	-1.06384	0
0.022	-1.06293	0
0.023	-1.06293	0
0.024	-1.06384	0
0.025	-1.06537	0
0.026	-1.06812	0
0.027	-1.07178	0
0.028	-1.07605	0
0.029	-1.08124	0
0.03	-1.08673	0
0.031	-1.09314	0
0.032	-1.09924	0
0.033	-1.10504	0
0.034	-1.11023	0
0.035	-1.11359	0
0.036	-1.11542	0
0.037	-1.1142	0
0.038	-1.10962	0
0.039	-1.10138	0
0.04	-1.08856	0
0.041	-1.07117	0
0.042	-1.04858	0
0.043	-1.02081	0
0.044	-0.987549	0
0.045	-0.948792	0
0.046	-0.904236	0
0.047	-0.853882	0
0.048	-0.79834	0
0.049	-0.738831	0
0.05	-0.67627	0
0.051	-0.612793	0
0.052	-0.550232	0
0.053	-0.490723	0
0.054	-0.435791	0
0.055	-0.386963	0
0.056	-0.346069	0
0.057	-0.313416	0
0.058	-0.289917	0
0.059	-0.275879	0
0.06	-0.272217	0
0.061	-0.279236	0
0.062	-0.297241	0
0.063	-0.325928	0
0.064	-0.365601	0
0.065	-0.414429	0
0.066	-0.471497	0
0.067	-0.534058	0
0.068	-0.600281	0
0.069	-0.668335	0
0.07	-0.736389	0
0.071	-0.802917	0
0.072	-0.866699	0
0.073	-0.926819	0
0.074	-0.98175	0
0.075	-1.0321	0
0.076	-1.07697	0
0.077	-1.11755	0
0.078	-1.15326	0
0.079	-1.18469	0
0.08	-1.21216	0
0.081	-1.23566	0
0.082	-1.25549	0
0.083	-1.27228	0
0.084	-1.28632	0
0.085	-1.29852	0
0.086	-1.30951	0
0.087	-1.31989	0
0.088	-1.32935	0
0.089	-1.3385	0
0.09	-1.34674	0
0.091	-1.35437	0
0.092	-1.36047	0
0.093	-1.36505	0
0.094	-1.36749	0
0.095	-1.36749	0
0.096	-1.36505	0
0.097	-1.36047	0
0.098	-1.35345	0
0.099	-1.3443	0
0.1	-1.33301	0
0.101	-1.31927	0
0.102	-1.30371	0
0.103	-1.28601	0
0.104	-1.26648	0
0.105	-1.24542	0
0.106	-1.22345	0
0.107	-1.20056	0
0.108	-1.17767	0
0.109	-1.15509	0
0.11	-1.13312	0
0.111	-1.11206	0
0.112	-1.09222	0
0.113	-1.07391	0
0.114	-1.05682	0
0.115	-1.04156	0
0.116	-1.02753	0
0.117	-1.01501	0
0.118	-1.00403	0
0.119	-0.994263	0
0.12	-0.986023	0
0.121	-0.979004	0
0.122	-0.973206	0
0.123	-0.968323	0
0.124	-0.963745	0
0.125	-0.959473	0
0.126	-0.9552	0
0.127	-0.951233	0
0.128	-0.94696	0
0.129	-0.942688	0
0.13	-0.93811	0
0.131	-0.933838	0
0.132	-0.928955	0
0.133	-0.924377	0
0.134	-0.9198	0
0.135	-0.915833	0
0.136	-0.91217	0
0.137	-0.909424	0
0.138	-0.907288	0
0.139	-0.905457	0
0.14	-0.903931	0
0.141	-0.9021	0
0.142	-0.899963	0
0.143	-0.897522	0
0.144	-0.89447	0
0.145	-0.890808	0
0.146	-0.886536	0
0.147	-0.882263	0
0.148	-0.877686	0
0.149	-0.873413	0
0.15	-0.869141	0
0.151	-0.865479	0
0.152	-0.861511	0
0.153	-0.857849	0
0.154	-0.853882	0
0.155	-0.85022	0
0.156	-0.846558	0
0.157	-0.843506	0
0.158	-0.840759	0
0.159	-0.838318	0
0.16	-0.836792	0
0.161	-0.835571	0
0.162	-0.834351	0
0.163	-0.833435	0
0.164	-0.832214	0
0.165	-0.830688	0
0.166	-0.828247	0
0.167	-0.82489	0
0.168	-0.820923	0
0.169	-0.81604	0
0.17	-0.810852	0
0.171	-0.805664	0
0.172	-0.800781	0
0.173	-0.796204	0
0.174	-0.791626	0
0.175	-0.787048	0
0.176	-0.782471	0
0.177	-0.777893	0
0.178	-0.773621	0
0.179	-0.769958	0
0.18	-0.766907	0
0.181	-0.76416	0
0.182	-0.762024	0
0.183	-0.760193	0
0.184	-0.758972	0
0.185	-0.757751	0
0.186	-0.756531	0
0.187	-0.75531	0
0.188	-0.754089	0
0.189	-0.752869	0
0.19	-0.751038	0
0.191	-0.749207	0
0.192	-0.746765	0
0.193	-0.744324	0
0.194	-0.741882	0
0.195	-0.739136	0
0.196	-0.736694	0
0.197	-0.733948	0
0.198	-0.731201	0
0.199	-0.728149	0
0.2	-0.724792	0
0.201	-0.72113	0
0.202	-0.717773	0
0.203	-0.713806	0
0.204	-0.709839	0
0.205	-0.705872	0
0.206	-0.701904	0
0.207	-0.697632	0
0.208	-0.692444	0
0.209	-0.68634	0
0.21	-0.679626	0
0.211	-0.672302	0
0.212	-0.665283	0
0.213	-0.658569	0
0.214	-0.652466	0
0.215	-0.646667	0
0.216	-0.641479	0
0.217	-0.635986	0
0.218	-0.630493	0
0.219	-0.625	0
0.22	-0.619812	0
0.221	-0.61554	0
0.222	-0.611572	0
0.223	-0.608521	0
0.224	-0.606079	0
0.225	-0.604248	0
0.226	-0.603027	0
0.227	-0.602112	0
0.228	-0.601196	0
0.229	-0.599976	0
0.23	-0.59845	0
0.231	-0.596313	0
0.232	-0.593872	0
0.233	-0.59082	0
0.234	-0.587463	0
0.235	-0.583801	0
0.236	-0.580139	0
0.237	-0.576477	0
0.238	-0.573425	0
0.239	-0.570374	0
0.24	-0.567932	0
0.241	-0.565796	0
0.242	-0.563965	0
0.243	-0.563049	0
0.244	-0.562744	0
0.245	-0.563049	0
0.246	-0.563965	0
0.247	-0.565186	0
0.248	-0.567017	0
0.249	-0.569153	0
0.25	-0.571594	0
0.251	-0.57373	0
0.252	-0.575562	0
0.253	-0.577087	0
0.254	-0.577393	0
0.255	-0.576477	0
0.256	-0.574341	0
0.257	-0.571289	0
0.258	-0.566711	0
0.259	-0.560913	0
0.26	-0.553894	0
0.261	-0.545959	0
0.262	-0.537415	0
0.263	-0.528259	0
0.264	-0.518799	0
0.265	-0.509338	0
0.266	-0.500488	0
0.267	-0.492249	0
0.268	-0.484924	0
0.269	-0.478821	0
0.27	-0.473633	0
0.271	-0.469666	0
0.272	-0.466919	0
0.273	-0.465393	0
0.274	-0.465393	0
0.275	-0.466614	0
0.276	-0.469055	0
0.277	-0.472107	0
0.278	-0.476074	0
0.279	-0.480042	0
0.28	-0.484314	0
0.281	-0.487976	0
0.282	-0.491333	0
0.283	-0.493774	0
0.284	-0.495911	0
0.285	-0.497437	0
0.286	-0.498352	0
0.287	-0.498352	0
0.288	-0.497437	0
0.289	-0.495605	0
0.29	-0.492554	0
0.291	-0.488586	0
0.292	-0.484009	0
0.293	-0.479126	0
0.294	-0.474243	0
0.295	-0.469971	0
0.296	-0.466309	0
0.297	-0.463562	0
0.298	-0.461426	0
0.299	-0.46051	0
0.3	-0.46051	0
0.301	-0.461426	0
0.302	-0.463257	0
0.303	-0.466309	0
0.304	-0.470276	0
0.305	-0.475464	0
0.306	-0.481567	0
0.307	-0.488281	0
0.308	-0.495605	0
0.309	-0.50293	0
0.31	-0.510559	0
0.311	-0.518188	0
0.312	-0.525818	0
0.313	-0.533142	0
0.314	-0.539856	0
0.315	-0.545959	0
0.316	-0.551453	0
0.317	-0.556335	0
0.318	-0.560608	0
0.319	-0.56488	0
0.32	-0.569153	0
0.321	-0.573425	0
0.322	-0.577698	0
0.323	-0.582275	0
0.324	-0.586853	0
0.325	-0.592041	0
0.326	-0.597534	0
0.327	-0.603333	0
0.328	-0.609436	0
0.329	-0.61615	0
0.33	-0.623474	0
0.331	-0.631104	0
0.332	-0.639343	0
0.333	-0.647278	0
0.334	-0.655212	0
0.335	-0.662842	0
0.336	-0.669556	0
0.337	-0.675659	0
0.338	-0.680542	0
0.339	-0.684509	0
0.34	-0.687561	0
0.341	-0.689697	0
0.342	-0.691223	0
0.343	-0.691833	0
0.344	-0.691528	0
0.345	-0.690918	0
0.346	-0.689697	0
0.347	-0.688171	0
0.348	-0.686646	0
0.349	-0.68512	0
0.35	-0.682983	0
0.351	-0.680847	0
0.352	-0.678406	0
0.353	-0.67627	0
0.354	-0.674133	0
0.355	-0.672302	0
0.356	-0.670471	0
0.357	-0.668945	0
0.358	-0.667419	0
0.359	-0.665894	0
0.36	-0.663757	0
0.361	-0.661316	0
0.362	-0.658264	0
0.363	-0.655212	0
0.364	-0.652466	0
0.365	-0.650024	0
0.366	-0.647888	0
0.367	-0.646057	0
0.368	-0.644531	0
0.369	-0.643311	0
0.37	-0.6427	0
0.371	-0.6427	0
0.372	-0.643616	0
0.373	-0.645142	0
0.374	-0.647278	0
0.375	-0.649719	0
0.376	-0.652161	0
0.377	-0.654297	0
0.378	-0.656433	0
0.379	-0.658569	0
0.38	-0.661011	0
0.381	-0.663147	0
0.382	-0.664978	0
0.383	-0.666199	0
0.384	-0.666199	0
0.385	-0.664063	0
0.386	-0.660095	0
0.387	-0.653992	0
0.388	-0.645142	0
0.389	-0.634155	0
0.39	-0.619812	0
0.391	-0.602417	0
0.392	-0.58136	0
0.393	-0.556641	0
0.394	-0.527954	0
0.395	-0.495605	0
0.396	-0.458984	0
0.397	-0.418396	0
0.398	-0.37323	0
0.399	-0.324097	0
0.4	-0.270691	0
0.401	-0.214233	0
0.402	-0.15564	0
0.403	-0.0967407	0
0.404	-0.038147	0
0.405	0.0180054	0
0.406	0.0695801	0
0.407	0.115356	0
0.408	0.153809	0
0.409	0.184326	0
0.41	0.206299	0
0.411	0.219116	0
0.412	0.221863	0
0.413	0.213623	0
0.414	0.193787	0
0.415	0.162964	0
0.416	0.12146	0
0.417	0.0698853	0
0.418	0.00976563	0
0.419	-0.0570679	0
0.42	-0.129089	0
0.421	-0.203552	0
0.422	-0.278625	0
0.423	-0.352783	0
0.424	-0.423889	0
0.425	-0.491638	0
0.426	-0.554504	0
0.427	-0.612488	0
0.428	-0.665283	0
0.429	-0.71228	0
0.43	-0.753479	0
0.431	-0.789185	0
0.432	-0.819092	0
0.433	-0.843506	0
0.434	-0.862732	0
0.435	-0.877686	0
0.436	-0.889587	0
0.437	-0.899048	0
0.438	-0.906982	0
0.439	-0.914307	0
0.44	-0.921021	0
0.441	-0.927124	0
0.442	-0.931702	0
0.443	-0.935059	0
0.444	-0.93689	0
0.445	-0.936584	0
0.446	-0.934753	0
0.447	-0.930786	0
0.448	-0.924988	0
0.449	-0.916443	0
0.45	-0.905762	0
0.451	-0.892639	0
0.452	-0.877075	0
0.453	-0.859375	0
0.454	-0.840149	0
0.455	-0.819397	0
0.456	-0.797119	0
0.457	-0.774231	0
0.458	-0.750427	0
0.459	-0.726318	0
0.46	-0.702209	0
0.461	-0.678406	0
0.462	-0.655518	0
0.463	-0.63324	0
0.464	-0.612488	0
0.465	-0.593262	0
0.466	-0.575562	0
0.467	-0.559387	0
0.468	-0.544739	0
0.469	-0.532227	0
0.47	-0.521545	0
0.471	-0.51239	0
0.472	-0.505371	0
0.473	-0.500183	0
0.474	-0.495911	0
0.475	-0.492859	0
0.476	-0.490417	0
0.477	-0.488586	0
0.478	-0.487061	0
0.479	-0.485229	0
0.48	-0.483398	0
0.481	-0.481262	0
0.482	-0.478821	0
0.483	-0.476379	0
0.484	-0.473022	0
0.485	-0.46936	0
0.486	-0.464783	0
0.487	-0.4599	0
0.488	-0.454407	0
0.489	-0.448914	0
0.49	-0.443115	0
0.491	-0.437317	0
0.492	-0.431824	0
0.493	-0.426331	0
0.494	-0.421448	0
0.495	-0.417175	0
0.496	-0.413513	0
0.497	-0.410156	0
0.498	-0.407715	0
0.499	-0.405579	0
0.5	-0.403748	0
0.501	-0.401917	0
0.502	-0.400085	0
0.503	-0.398254	0
0.504	-0.396118	0
0.505	-0.393982	0
0.506	-0.391541	0
0.507	-0.389099	0
0.508	-0.386353	0
0.509	-0.383606	0
0.51	-0.380859	0
0.511	-0.378113	0
0.512	-0.375061	0
0.513	-0.371704	0
0.514	-0.368347	0
0.515	-0.36499	0
0.516	-0.361633	0
0.517	-0.358276	0
0.518	-0.354919	0
0.519	-0.350647	0
0.52	-0.346375	0
0.521	-0.341797	0
0.522	-0.336609	0
0.523	-0.331116	0
0.524	-0.325012	0
0.525	-0.318604	0
0.526	-0.3125	0
0.527	-0.306396	0
0.528	-0.300903	0
0.529	-0.29541	0
0.53	-0.290222	0
0.531	-0.285645	0
0.532	-0.281677	0
0.533	-0.278625	0
0.534	-0.275879	0
0.535	-0.274353	0
0.536	-0.273132	0
0.537	-0.272522	0
0.538	-0.272522	0
0.539	-0.273438	0
0.54	-0.274658	0
0.541	-0.276489	0
0.542	-0.278931	0
0.543	-0.281067	0
0.544	-0.283203	0
0.545	-0.284424	0
0.546	-0.285034	0
0.547	-0.284729	0
0.548	-0.283813	0
0.549	-0.281982	0
0.55	-0.279846	0
0.551	-0.2771	0
0.552	-0.273743	0
0.553	-0.270081	0
0.554	-0.266113	0
0.555	-0.261536	0
0.556	-0.256653	0
0.557	-0.251465	0
0.558	-0.245667	0
0.559	-0.239868	0
0.56	-0.233765	0
0.561	-0.227966	0
0.562	-0.222473	0
0.563	-0.21759	0
0.564	-0.212708	0
0.565	-0.208435	0
0.566	-0.204468	0
0.567	-0.201111	0
0.568	-0.198059	0
0.569	-0.195007	0
0.57	-0.192566	0
0.571	-0.189819	0
0.572	-0.187073	0
0.573	-0.184326	0
0.574	-0.181274	0
0.575	-0.177917	0
0.576	-0.174255	0
0.577	-0.169983	0
0.578	-0.165405	0
0.579	-0.160217	0
0.58	-0.155029	0
0.581	-0.149231	0
0.582	-0.143433	0
0.583	-0.137329	0
0.584	-0.131226	0
0.585	-0.124817	0
0.586	-0.118408	0
0.587	-0.11261	0
0.588	-0.107117	0
0.589	-0.102234	0
0.59	-0.0979614	0
0.591	-0.0942993	0
0.592	-0.0915527	0
0.593	-0.0894165	0
0.594	-0.0881958	0
0.595	-0.0878906	0
0.596	-0.088501	0
0.597	-0.0897217	0
0.598	-0.0915527	0
0.599	-0.093689	0
0.6	-0.0958252	0
0.601	-0.0985718	0
0.602	-0.100708	0
0.603	-0.102844	0
0.604	-0.104675	0
0.605	-0.106201	0
0.606	-0.108032	0
0.607	-0.109253	0
0.608	-0.109863	0
0.609	-0.109253	0
0.61	-0.107727	0
0.611	-0.10498	0
0.612	-0.101318	0
0.613	-0.0970459	0
0.614	-0.0918579	0
0.615	-0.0860596	0
0.616	-0.0796509	0
0.617	-0.072937	0
0.618	-0.0662231	0
0.619	-0.0592041	0
0.62	-0.0521851	0
0.621	-0.045166	0
0.622	-0.038147	0
0.623	-0.0317383	0
0.624	-0.0256348	0
0.625	-0.0201416	0
0.626	-0.015564	0
0.627	-0.0112915	0
0.628	-0.00762939	0
0.629	-0.00457764	0
0.63	-0.00213623	0
0.631	0	0
0.632	0.00183105	0
0.633	0.00335693	0
0.634	0.00427246	0
0.635	0.00488281	0
0.636	0.00518799	0
0.637	0.00579834	0
0.638	0.00610352	0
0.639	0.00610352	0
0.64	0.00579834	0
0.641	0.00518799	0
0.642	0.00396729	0
0.643	0.00274658	0
0.644	0.0012207	0
0.645	-0.000305176	0
0.646	-0.00183105	0
0.647	-0.00366211	0
0.648	-0.00549316	0
0.649	-0.00732422	0
0.65	-0.00946045	0
0.651	-0.0115967	0
0.652	-0.0140381	0
0.653	-0.0161743	0
0.654	-0.0186157	0
0.655	-0.0210571	0
0.656	-0.0234985	0
0.657	-0.0259399	0
0.658	-0.0280762	0
0.659	-0.0302124	0
0.66	-0.032959	0
0.661	-0.0360107	0
0.662	-0.039978	0
0.663	-0.0445557	0
0.664	-0.0497437	0
0.665	-0.055542	0
0.666	-0.0619507	0
0.667	-0.0686646	0
0.668	-0.0759888	0
0.669	-0.0839233	0
0.67	-0.0921631	0
0.671	-0.101013	0
0.672	-0.110168	0
0.673	-0.119019	0
0.674	-0.127563	0
0.675	-0.135803	0
0.676	-0.143433	0
0.677	-0.150452	0
0.678	-0.15686	0
0.679	-0.162354	0
0.68	-0.167542	0
0.681	-0.171814	0
0.682	-0.175476	0
0.683	-0.177917	0
0.684	-0.179138	0
0.685	-0.179749	0
0.686	-0.179443	0
0.687	-0.178833	0
0.688	-0.178223	0
0.689	-0.177307	0
0.69	-0.176086	0
0.691	-0.174866	0
0.692	-0.17395	0
0.693	-0.173035	0
0.694	-0.172424	0
0.695	-0.172119	0
0.696	-0.172424	0
0.697	-0.172729	0
0.698	-0.17334	0
0.699	-0.174255	0
0.7	-0.175476	0
0.701	-0.177002	0
0.702	-0.178833	0
0.703	-0.180664	0
0.704	-0.18219	0
0.705	-0.184021	0
0.706	-0.185547	0
0.707	-0.187073	0
0.708	-0.188293	0
0.709	-0.189209	0
0.71	-0.189514	0
0.711	-0.189514	0
0.712	-0.189209	0
0.713	-0.188599	0
0.714	-0.187378	0
0.715	-0.185852	0
0.716	-0.184326	0
0.717	-0.182495	0
0.718	-0.180359	0
0.719	-0.178528	0
0.72	-0.176392	0
0.721	-0.174561	0
0.722	-0.172729	0
0.723	-0.171204	0
0.724	-0.170288	0
0.725	-0.169678	0
0.726	-0.169373	0
0.727	-0.169678	0
0.728	-0.170288	0
0.729	-0.171509	0
0.73	-0.172729	0
0.731	-0.17395	0
0.732	-0.174866	0
0.733	-0.174866	0
0.734	-0.173645	0
0.735	-0.170898	0
0.736	-0.166626	0
0.737	-0.160522	0
0.738	-0.151978	0
0.739	-0.140686	0
0.74	-0.126038	0
0.741	-0.108032	0
0.742	-0.0860596	0
0.743	-0.0604248	0
0.744	-0.0302124	0
0.745	0.00396729	0
0.746	0.0424194	0
0.747	0.085144	0
0.748	0.132446	0
0.749	0.184021	0
0.75	0.239563	0
0.751	0.298462	0
0.752	0.358887	0
0.753	0.419312	0
0.754	0.47821	0
0.755	0.533752	0
0.756	0.584412	0
0.757	0.628967	0
0.758	0.665894	0
0.759	0.694885	0
0.76	0.714722	0
0.761	0.725098	0
0.762	0.726013	0
0.763	0.716248	0
0.764	0.695496	0
0.765	0.663757	0
0.766	0.620728	0
0.767	0.567627	0
0.768	0.505676	0
0.769	0.437317	0
0.77	0.364075	0
0.771	0.288086	0
0.772	0.211182	0
0.773	0.135193	0
0.774	0.0619507	0
0.775	-0.00762939	0
0.776	-0.0723267	0
0.777	-0.132141	0
0.778	-0.186768	0
0.779	-0.235596	0
0.78	-0.279236	0
0.781	-0.317078	0
0.782	-0.349731	0
0.783	-0.377197	0
0.784	-0.399475	0
0.785	-0.41748	0
0.786	-0.431519	0
0.787	-0.4422	0
0.788	-0.450134	0
0.789	-0.455627	0
0.79	-0.458679	0
0.791	-0.4599	0
0.792	-0.458984	0
0.793	-0.456238	0
0.794	-0.452271	0
0.795	-0.446472	0
0.796	-0.439148	0
0.797	-0.429993	0
0.798	-0.418701	0
0.799	-0.405579	0
0.8	-0.39032	0
0.801	-0.37323	0
0.802	-0.354309	0
0.803	-0.334167	0
0.804	-0.31311	0
0.805	-0.291443	0
0.806	-0.269775	0
0.807	-0.248108	0
0.808	-0.226746	0
0.809	-0.205383	0
0.81	-0.184326	0
0.811	-0.163574	0
0.812	-0.143738	0
0.813	-0.124817	0
0.814	-0.106812	0
0.815	-0.0900269	0
0.816	-0.0747681	0
0.817	-0.0610352	0
0.818	-0.0491333	0
0.819	-0.0384521	0
0.82	-0.0286865	0
0.821	-0.0201416	0
0.822	-0.0125122	0
0.823	-0.00610352	0
0.824	-0.000610352	0
0.825	0.00396729	0
0.826	0.00762939	0
0.827	0.0109863	146.341
0.828	0.0137329	146.341
0.829	0.0164795	146.341
0.83	0.0189209	146.341
0.831	0.0213623	146.341
0.832	0.0241089	146.341
0.833	0.0271606	146.341
0.834	0.0302124	146.341
0.835	0.0338745	146.341
0.836	0.0372314	146.341
0.837	0.0408936	146.341
0.838	0.0445557	146.341
0.839	0.0482178	146.341
0.84	0.0518799	146.341
0.841	0.0558472	146.341
0.842	0.0595093	146.341
0.843	0.0631714	146.341
0.844	0.0668335	146.341
0.845	0.0708008	146.341
0.846	0.0744629	146.341
0.847	0.0784302	146.341
0.848	0.0827026	146.341
0.849	0.0872803	146.341
0.85	0.0921631	146.341
0.851	0.0967407	146.341
0.852	0.101318	146.341
0.853	0.105896	146.341
0.854	0.110168	146.341
0.855	0.114441	146.341
0.856	0.119019	146.341
0.857	0.123596	146.341
0.858	0.127869	146.341
0.859	0.131836	146.341
0.86	0.135498	146.341
0.861	0.138855	146.341
0.862	0.142212	146.341
0.863	0.145569	146.341
0.864	0.148315	146.341
0.865	0.151062	146.341
0.866	0.153503	146.341
0.867	0.15625	146.341
0.868	0.158997	146.341
0.869	0.162048	146.341
0.87	0.16571	146.341
0.871	0.169678	146.341
0.872	0.174255	146.341
0.873	0.179443	146.341
0.874	0.184631	146.341
0.875	0.190125	146.341
0.876	0.195923	146.341
0.877	0.201416	146.341
0.878	0.207214	146.341
0.879	0.213013	146.341
0.88	0.218506	146.341
0.881	0.223999	146.341
0.882	0.228882	146.341
0.883	0.233459	146.341
0.884	0.237732	146.341
0.885	0.241699	146.341
0.886	0.245361	146.341
0.887	0.248718	146.341
0.888	0.251465	146.341
0.889	0.253296	146.341
0.89	0.254822	146.341
0.891	0.256042	146.341
0.892	0.257263	146.341
0.893	0.258484	146.341
0.894	0.259705	146.341
0.895	0.26123	146.341
0.896	0.263062	146.341
0.897	0.264893	146.341
0.898	0.267029	146.341
0.899	0.269165	146.341
0.9	0.271912	146.341
0.901	0.274658	146.341
0.902	0.277405	146.341
0.903	0.280151	146.341
0.904	0.282898	146.341
0.905	0.285339	146.341
0.906	0.287476	146.341
0.907	0.289307	146.341
0.908	0.291443	146.341
0.909	0.293884	146.341
0.91	0.296631	146.341
0.911	0.299683	146.341
0.912	0.30304	146.341
0.913	0.306396	146.341
0.914	0.309448	146.341
0.915	0.3125	146.341
0.916	0.314941	146.341
0.917	0.317688	146.341
0.918	0.320129	146.341
0.919	0.323181	146.341
0.92	0.326233	146.341
0.921	0.32959	146.341
0.922	0.333557	146.341
0.923	0.33844	146.341
0.924	0.343323	146.341
0.925	0.348511	146.341
0.926	0.353394	146.341
0.927	0.357971	146.341
0.928	0.362549	146.341
0.929	0.366821	146.341
0.93	0.371094	146.341
0.931	0.375061	146.341
0.932	0.379028	146.341
0.933	0.382385	146.341
0.934	0.386047	146.341
0.935	0.389404	146.341
0.936	0.392456	146.341
0.937	0.395203	146.341
0.938	0.397644	146.341
0.939	0.399475	146.341
0.94	0.400696	146.341
0.941	0.401917	146.341
0.942	0.403137	146.341
0.943	0.404358	146.341
0.944	0.405884	146.341
0.945	0.40741	146.341
0.946	0.409241	146.341
0.947	0.411072	146.341
0.948	0.412598	146.341
0.949	0.414124	146.341
0.95	0.415344	146.341
0.951	0.41626	146.341
0.952	0.41748	146.341
0.953	0.418091	146.341
0.954	0.418701	146.341
0.955	0.418701	146.341
0.956	0.418396	146.341
0.957	0.41748	146.341
0.958	0.41626	146.341
0.959	0.414734	146.341
0.96	0.412903	146.341
0.961	0.410767	146.341
0.962	0.409241	146.341
0.963	0.40802	146.341
0.964	0.407715	146.341
0.965	0.407715	146.341
0.966	0.40863	146.341
0.967	0.409851	146.341
0.968	0.411377	146.341
0.969	0.413513	146.341
0.97	0.41626	146.341
0.971	0.419617	146.341
0.972	0.423279	146.341
0.973	0.427856	146.341
0.974	0.432434	146.341
0.975	0.437622	146.341
0.976	0.442505	146.341
0.977	0.447083	146.341
0.978	0.45166	146.341
0.979	0.455627	146.341
0.98	0.458984	146.341
0.981	0.461731	146.341
0.982	0.463867	146.341
0.983	0.465088	146.341
0.984	0.466003	146.341
0.985	0.466309	146.341
0.986	0.466614	146.341
0.987	0.466309	146.341
0.988	0.465698	146.341
0.989	0.464783	146.341
0.99	0.463257	146.341
0.991	0.461731	146.341
0.992	0.4599	146.341
0.993	0.457764	146.341
0.994	0.455322	146.341
0.995	0.452576	146.341
0.996	0.449829	146.341
0.997	0.446472	146.341
0.998	0.44281	146.341
0.999	0.438843	146.341
1	0.434265	146.341
1.001	0.429382	146.341
1.002	0.423889	146.341
1.003	0.418396	146.341
1.004	0.412598	146.341
1.005	0.406799	146.341
1.006	0.400391	146.341
1.007	0.393982	146.341
1.008	0.386963	146.341
1.009	0.379944	146.341
1.01	0.37262	146.341
1.011	0.365295	146.341
1.012	0.357971	146.341
1.013	0.351257	146.341
1.014	0.344849	146.341
1.015	0.33905	146.341
1.016	0.333557	146.341
1.017	0.328674	146.341
1.018	0.324097	146.341
1.019	0.319824	146.341
1.02	0.315857	146.341
1.021	0.31189	146.341
1.022	0.307922	146.341
1.023	0.30426	146.341
1.024	0.300598	146.341
1.025	0.296936	146.341
1.026	0.293274	146.341
1.027	0.290222	146.341
1.028	0.28717	146.341
1.029	0.284424	146.341
1.03	0.281677	146.341
1.031	0.278625	146.341
1.032	0.275574	146.341
1.033	0.272217	146.341
1.034	0.268555	146.341
1.035	0.265198	146.341
1.036	0.261841	146.341
1.037	0.258484	146.341
1.038	0.255737	146.341
1.039	0.253296	146.341
1.04	0.250854	146.341
1.041	0.248718	146.341
1.042	0.246887	146.341
1.043	0.245361	146.341
1.044	0.244446	146.341
1.045	0.243835	146.341
1.046	0.243835	146.341
1.047	0.243835	146.341
1.048	0.244141	146.341
1.049	0.244751	146.341
1.05	0.245972	146.341
1.051	0.247803	146.341
1.052	0.250244	146.341
1.053	0.252686	146.341
1.054	0.255127	146.341
1.055	0.257874	146.341
1.056	0.260315	146.341
1.057	0.262451	146.341
1.058	0.264282	146.341
1.059	0.265503	146.341
1.06	0.266724	146.341
1.061	0.267639	146.341
1.062	0.268555	146.341
1.063	0.269775	146.341
1.064	0.270691	146.341
1.065	0.271606	146.341
1.066	0.272522	146.341
1.067	0.272827	146.341
1.068	0.273132	146.341
1.069	0.272827	146.341
1.07	0.272217	146.341
1.071	0.270691	146.341
1.072	0.268555	146.341
1.073	0.266113	146.341
1.074	0.263062	146.341
1.075	0.259399	146.341
1.076	0.255737	146.341
1.077	0.251465	146.341
1.078	0.247498	146.341
1.079	0.243835	146.341
1.08	0.240784	146.341
1.081	0.238953	146.341
1.082	0.238647	146.341
1.083	0.240784	146.341
1.084	0.245361	146.341
1.085	0.253601	146.341
1.086	0.265808	146.341
1.087	0.282898	146.341
1.088	0.304871	146.341
1.089	0.332031	146.341
1.09	0.36499	146.341
1.091	0.403748	146.341
1.092	0.447998	146.341
1.093	0.498047	146.341
1.094	0.553284	146.341
1.095	0.613403	146.341
1.096	0.677795	146.341
1.097	0.745239	146.341
1.098	0.813599	146.341
1.099	0.881042	146.341
1.1	0.94574	146.341
1.101	1.00555	146.341
1.102	1.05865	146.341
1.103	1.10321	146.341
1.104	1.13831	146.341
1.105	1.16302	146.341
1.106	1.17706	146.341
1.107	1.1795	146.341
1.108	1.17065	146.341
1.109	1.1496	146.341
1.11	1.11694	146.341
1.111	1.07208	146.341
1.112	1.01685	146.341
1.113	0.951843	146.341
1.114	0.879822	146.341
1.115	0.802307	146.341
1.116	0.72113	146.341
1.117	0.638428	146.341
1.118	0.555725	146.341
1.119	0.474854	146.341
1.12	0.397034	146.341
1.121	0.323181	146.341
1.122	0.253906	146.341
1.123	0.189514	146.341
1.124	0.13092	146.341
1.125	0.078125	146.341
1.126	0.0311279	146.341
1.127	-0.00976563	146.341
1.128	-0.0445557	146.341
1.129	-0.0735474	146.341
1.13	-0.0976563	146.341
1.131	-0.116882	146.341
1.132	-0.132141	146.341
1.133	-0.144043	146.341
1.134	-0.152283	146.341
1.135	-0.157776	146.341
1.136	-0.159912	146.341
1.137	-0.158997	146.341
1.138	-0.155029	146.341
1.139	-0.148621	146.341
1.14	-0.139465	146.341
1.141	-0.127563	146.341
1.142	-0.113831	146.341
1.143	-0.0979614	146.341
1.144	-0.0799561	146.341
1.145	-0.06073	146.341
1.146	-0.0396729	146.341
1.147	-0.017395	146.341
1.148	0.00610352	146.341
1.149	0.0305176	146.341
1.15	0.0552368	146.341
1.151	0.0799561	146.341
1.152	0.104065	146.341
1.153	0.127869	146.341
1.154	0.150452	146.341
1.155	0.172119	146.341
1.156	0.192261	146.341
1.157	0.211487	146.341
1.158	0.229187	146.341
1.159	0.245361	146.341
1.16	0.259705	146.341
1.161	0.272827	146.341
1.162	0.284119	146.341
1.163	0.293274	146.341
1.164	0.300598	146.341
1.165	0.306091	146.341
1.166	0.310059	146.341
1.167	0.3125	146.341
1.168	0.314026	146.341
1.169	0.314636	146.341
1.17	0.314636	146.341
1.171	0.314331	146.341
1.172	0.314026	146.341
1.173	0.313721	146.341
1.174	0.313416	146.341
1.175	0.313721	146.341
1.176	0.314331	146.341
1.177	0.315247	146.341
1.178	0.316772	146.341
1.179	0.318604	146.341
1.18	0.32074	146.341
1.181	0.323181	146.341
1.182	0.326538	146.341
1.183	0.3302	146.341
1.184	0.334167	146.341
1.185	0.338745	146.341
1.186	0.343323	146.341
1.187	0.3479	146.341
1.188	0.352783	146.341
1.189	0.357971	146.341
1.19	0.363464	146.341
1.191	0.369263	146.341
1.192	0.375061	146.341
1.193	0.380554	146.341
1.194	0.386047	146.341
1.195	0.39093	146.341
1.196	0.395203	146.341
1.197	0.39917	146.341
1.198	0.402832	146.341
1.199	0.406189	146.341
1.2	0.409546	146.341
1.201	0.412598	146.341
1.202	0.415344	146.341
1.203	0.418091	146.341
1.204	0.420532	146.341
1.205	0.422668	146.341
1.206	0.424194	146.341
1.207	0.425415	146.341
1.208	0.426331	146.341
1.209	0.426636	146.341
1.21	0.426941	146.341
1.211	0.427246	146.341
1.212	0.427551	146.341
1.213	0.428162	146.341
1.214	0.429077	146.341
1.215	0.430298	146.341
1.216	0.431824	146.341
1.217	0.43396	146.341
1.218	0.436096	146.341
1.219	0.438538	146.341
1.22	0.440979	146.341
1.221	0.444031	146.341
1.222	0.447083	146.341
1.223	0.450134	146.341
1.224	0.453491	146.341
1.225	0.457153	146.341
1.226	0.461121	146.341
1.227	0.464783	146.341
1.228	0.46875	146.341
1.229	0.472107	146.341
1.23	0.475159	146.341
1.231	0.47821	146.341
1.232	0.480957	146.341
1.233	0.483398	146.341
1.234	0.485229	146.341
1.235	0.486755	146.341
1.236	0.487976	146.341
1.237	0.488892	146.341
1.238	0.489807	146.341
1.239	0.490723	146.341
1.24	0.491943	146.341
1.241	0.493164	146.341
1.242	0.49469	146.341
1.243	0.496826	146.341
1.244	0.498962	146.341
1.245	0.501099	146.341
1.246	0.50354	146.341
1.247	0.505981	146.341
1.248	0.508423	146.341
1.249	0.510559	146.341
1.25	0.512695	146.341
1.251	0.514832	146.341
1.252	0.516663	146.341
1.253	0.518494	146.341
1.254	0.520325	146.341
1.255	0.522156	146.341
1.256	0.523682	146.341
1.257	0.525208	146.341
1.258	0.526428	146.341
1.259	0.527649	146.341
1.26	0.52887	146.341
1.261	0.529785	146.341
1.262	0.531006	146.341
1.263	0.531616	146.341
1.264	0.532227	146.341
1.265	0.532837	146.341
1.266	0.533447	146.341
1.267	0.534058	146.341
1.268	0.534668	146.341
1.269	0.534973	146.341
1.27	0.535278	146.341
1.271	0.534973	146.341
1.272	0.534668	146.341
1.273	0.534058	146.341
1.274	0.533752	146.341
1.275	0.533142	146.341
1.276	0.533142	146.341
1.277	0.533142	146.341
1.278	0.534058	146.341
1.279	0.534973	146.341
1.28	0.535889	146.341
1.281	0.536804	146.341
1.282	0.53772	146.341
1.283	0.53894	146.341
1.284	0.540466	146.341
1.285	0.541992	146.341
1.286	0.543518	146.341
1.287	0.545044	146.341
1.288	0.54657	146.341
1.289	0.547485	146.341
1.29	0.548096	146.341
1.291	0.547485	146.341
1.292	0.546265	146.341
1.293	0.544434	146.341
1.294	0.541992	146.341
1.295	0.539246	146.341
1.296	0.536194	146.341
1.297	0.532532	146.341
1.298	0.528564	146.341
1.299	0.524292	146.341
1.3	0.52002	146.341
1.301	0.516052	146.341
1.302	0.512695	146.341
1.303	0.509644	146.341
1.304	0.507202	146.341
1.305	0.505371	146.341
1.306	0.504456	146.341
1.307	0.503845	146.341
1.308	0.50415	146.341
1.309	0.505066	146.341
1.31	0.506287	146.341
1.311	0.507507	146.341
1.312	0.509338	146.341
1.313	0.510864	146.341
1.314	0.513	146.341
1.315	0.515137	146.341
1.316	0.517578	146.341
1.317	0.52002	146.341
1.318	0.522461	146.341
1.319	0.524597	146.341
1.32	0.526428	146.341
1.321	0.527954	146.341
1.322	0.52887	146.341
1.323	0.52948	146.341
1.324	0.529785	146.341
1.325	0.529785	146.341
1.326	0.53009	146.341
1.327	0.530396	146.341
1.328	0.530396	146.341
1.329	0.53009	146.341
1.33	0.529175	146.341
1.331	0.527954	146.341
1.332	0.525818	146.341
1.333	0.523376	146.341
1.334	0.52063	146.341
1.335	0.517883	146.341
1.336	0.515137	146.341
1.337	0.512695	146.341
1.338	0.510864	146.341
1.339	0.509033	146.341
1.34	0.507507	146.341
1.341	0.505676	146.341
1.342	0.503845	146.341
1.343	0.501709	146.341
1.344	0.499268	146.341
1.345	0.496826	146.341
1.346	0.49408	146.341
1.347	0.491638	146.341
1.348	0.489197	146.341
1.349	0.486755	146.341
1.35	0.484314	146.341
1.351	0.481262	146.341
1.352	0.4776	146.341
1.353	0.473022	146.341
1.354	0.467529	146.341
1.355	0.461426	146.341
1.356	0.454712	146.341
1.357	0.447693	146.341
1.358	0.439758	146.341
1.359	0.431213	146.341
1.36	0.422363	146.341
1.361	0.412903	146.341
1.362	0.403442	146.341
1.363	0.393982	146.341
1.364	0.384521	146.341
1.365	0.375366	146.341
1.366	0.366516	146.341
1.367	0.357971	146.341
1.368	0.349731	146.341
1.369	0.341797	146.341
1.37	0.334167	146.341
1.371	0.326538	146.341
1.372	0.319519	146.341
1.373	0.3125	146.341
1.374	0.306091	146.341
1.375	0.300293	146.341
1.376	0.2948	146.341
1.377	0.289917	146.341
1.378	0.285034	146.341
1.379	0.280762	146.341
1.38	0.276489	146.341
1.381	0.272522	146.341
1.382	0.26886	146.341
1.383	0.265503	146.341
1.384	0.262451	146.341
1.385	0.26001	146.341
1.386	0.257568	146.341
1.387	0.255127	146.341
1.388	0.252686	146.341
1.389	0.250549	146.341
1.39	0.248413	146.341
1.391	0.245972	146.341
1.392	0.243835	146.341
1.393	0.241699	146.341
1.394	0.239258	146.341
1.395	0.237122	146.341
1.396	0.234985	146.341
1.397	0.232849	146.341
1.398	0.230713	146.341
1.399	0.228577	146.341
1.4	0.226746	146.341
1.401	0.22522	146.341
1.402	0.223999	146.341
1.403	0.222778	146.341
1.404	0.221863	146.341
1.405	0.220947	146.341
1.406	0.219727	146.341
1.407	0.218506	146.341
1.408	0.217285	146.341
1.409	0.21637	146.341
1.41	0.215149	146.341
1.411	0.213928	146.341
1.412	0.212708	146.341
1.413	0.211487	146.341
1.414	0.209961	146.341
1.415	0.208435	146.341
1.416	0.206299	146.341
1.417	0.203857	146.341
1.418	0.200806	146.341
1.419	0.197144	146.341
1.42	0.192566	146.341
1.421	0.187378	146.341
1.422	0.18158	146.341
1.423	0.175476	146.341
1.424	0.169373	146.341
1.425	0.163574	146.341
1.426	0.157471	146.341
1.427	0.152283	146.341
1.428	0.147705	146.341
1.429	0.144653	146.341
1.43	0.143127	146.341
1.431	0.143738	146.341
1.432	0.147095	146.341
1.433	0.154114	146.341
1.434	0.165405	146.341
1.435	0.180969	146.341
1.436	0.201416	146.341
1.437	0.227356	146.341
1.438	0.259094	146.341
1.439	0.296936	146.341
1.44	0.340881	146.341
1.441	0.390625	146.341
1.442	0.446472	146.341
1.443	0.507813	146.341
1.444	0.573425	146.341
1.445	0.642395	146.341
1.446	0.713196	146.341
1.447	0.783997	146.341
1.448	0.852356	146.341
1.449	0.916748	146.341
1.45	0.975342	146.341
1.451	1.02539	146.341
1.452	1.06598	146.341
1.453	1.09619	146.341
1.454	1.11481	146.341
1.455	1.12122	146.341
1.456	1.11481	146.341
1.457	1.09497	146.341
1.458	1.06201	146.341
1.459	1.01624	146.341
1.46	0.958557	146.341
1.461	0.890198	146.341
1.462	0.813293	146.341
1.463	0.72937	146.341
1.464	0.641174	146.341
1.465	0.550537	146.341
1.466	0.460205	146.341
1.467	0.371399	146.341
1.468	0.285645	94.6372
1.469	0.204163	94.6372
1.47	0.127563	94.6372
1.471	0.0567627	94.6372
1.472	-0.00762939	94.6372
1.473	-0.0650024	94.6372
1.474	-0.115051	94.6372
1.475	-0.158081	94.6372
1.476	-0.194092	94.6372
1.477	-0.223694	94.6372
1.478	-0.247803	94.6372
1.479	-0.267029	94.6372
1.48	-0.281677	94.6372
1.481	-0.292358	94.6372
1.482	-0.299072	94.6372
1.483	-0.302734	94.6372
1.484	-0.30304	94.6372
1.485	-0.300903	94.6372
1.486	-0.296021	94.6372
1.487	-0.289001	94.6372
1.488	-0.280151	94.6372
1.489	-0.269165	94.6372
1.49	-0.256348	94.6372
1.491	-0.241699	94.6372
1.492	-0.224609	94.6372
1.493	-0.205688	94.6372
1.494	-0.184631	94.6372
1.495	-0.162048	94.6372
1.496	-0.13916	94.6372
1.497	-0.115662	94.6372
1.498	-0.0924683	94.6372
1.499	-0.0695801	94.6372
1.5	-0.0473022	94.6372
1.501	-0.0253296	94.6372
1.502	-0.00427246	94.6372
1.503	0.015564	94.6372
1.504	0.0344849	94.6372
1.505	0.0515747	94.6372
1.506	0.0671387	94.6372
1.507	0.0811768	94.6372
1.508	0.0933838	94.6372
1.509	0.10376	94.6372
1.51	0.112305	94.6372
1.511	0.119019	94.6372
1.512	0.123901	94.6372
1.513	0.127563	94.6372
1.514	0.1297	94.6372
1.515	0.13092	94.6372
1.516	0.131226	94.6372
1.517	0.13092	94.6372
1.518	0.130005	94.6372
1.519	0.129089	94.6372
1.52	0.127869	94.6372
1.521	0.126648	94.6372
1.522	0.125122	94.6372
1.523	0.123901	94.6372
1.524	0.122681	94.6372
1.525	0.12207	94.6372
1.526	0.12207	94.6372
1.527	0.122681	94.6372
1.528	0.124207	94.6372
1.529	0.126343	94.6372
1.53	0.128479	94.6372
1.531	0.13092	94.6372
1.532	0.133362	94.6372
1.533	0.135803	94.6372
1.534	0.13855	94.6372
1.535	0.141602	94.6372
1.536	0.145264	94.6372
1.537	0.148926	94.6372
1.538	0.152893	94.6372
1.539	0.156555	94.6372
1.54	0.160217	94.6372
1.541	0.163879	94.6372
1.542	0.167236	94.6372
1.543	0.170288	94.6372
1.544	0.172729	94.6372
1.545	0.174866	94.6372
1.546	0.176392	94.6372
1.547	0.177307	94.6372
1.548	0.178223	94.6372
1.549	0.178833	94.6372
1.55	0.179749	94.6372
1.551	0.180969	94.6372
1.552	0.18219	94.6372
1.553	0.184021	94.6372
1.554	0.185852	94.6372
1.555	0.188293	94.6372
1.556	0.19104	94.6372
1.557	0.194092	94.6372
1.558	0.197449	94.6372
1.559	0.200806	94.6372
1.56	0.204468	94.6372
1.561	0.207825	94.6372
1.562	0.210876	94.6372
1.563	0.214233	94.6372
1.564	0.217285	94.6372
1.565	0.220642	94.6372
1.566	0.224304	94.6372
1.567	0.227966	94.6372
1.568	0.231323	94.6372
1.569	0.234375	94.6372
1.57	0.237122	94.6372
1.571	0.238953	94.6372
1.572	0.240173	94.6372
1.573	0.241394	94.6372
1.574	0.24231	94.6372
1.575	0.24292	94.6372
1.576	0.243835	94.6372
1.577	0.244751	94.6372
1.578	0.245667	94.6372
1.579	0.246582	94.6372
1.58	0.247803	94.6372
1.581	0.249329	94.6372
1.582	0.250549	94.6372
1.583	0.25177	94.6372
1.584	0.252991	94.6372
1.585	0.254517	94.6372
1.586	0.255737	94.6372
1.587	0.257263	94.6372
1.588	0.258484	94.6372
1.589	0.259705	94.6372
1.59	0.26123	94.6372
1.591	0.262756	94.6372
1.592	0.263977	94.6372
1.593	0.265198	94.6372
1.594	0.266113	94.6372
1.595	0.267029	94.6372
1.596	0.267334	94.6372
1.597	0.267639	94.6372
1.598	0.267639	94.6372
1.599	0.267944	94.6372
1.6	0.267944	94.6372
1.601	0.268555	94.6372
1.602	0.269165	94.6372
1.603	0.270081	94.6372
1.604	0.271301	94.6372
1.605	0.272522	94.6372
1.606	0.273743	94.6372
1.607	0.274658	94.6372
1.608	0.275574	94.6372
1.609	0.276184	94.6372
1.61	0.276489	94.6372
1.611	0.2771	94.6372
1.612	0.278015	94.6372
1.613	0.279236	94.6372
1.614	0.280457	94.6372
1.615	0.281982	94.6372
1.616	0.283203	94.6372
1.617	0.284424	94.6372
1.618	0.28595	94.6372
1.619	0.28717	94.6372
1.62	0.288391	94.6372
1.621	0.289307	94.6372
1.622	0.290222	94.6372
1.623	0.290527	94.6372
1.624	0.290833	94.6372
1.625	0.290527	94.6372
1.626	0.289917	94.6372
1.627	0.288391	94.6372
1.628	0.286865	94.6372
1.629	0.285034	94.6372
1.63	0.282898	94.6372
1.631	0.280151	94.6372
1.632	0.2771	94.6372
1.633	0.273743	94.6372
1.634	0.269775	94.6372
1.635	0.265503	94.6372
1.636	0.26123	94.6372
1.637	0.256653	94.6372
1.638	0.25238	94.6372
1.639	0.248718	94.6372
1.64	0.245056	94.6372
1.641	0.242004	94.6372
1.642	0.239868	94.6372
1.643	0.238342	94.6372
1.644	0.237427	94.6372
1.645	0.237427	94.6372
1.646	0.237732	94.6372
1.647	0.238037	94.6372
1.648	0.238342	94.6372
1.649	0.238647	94.6372
1.65	0.238953	94.6372
1.651	0.239258	94.6372
1.652	0.239868	94.6372
1.653	0.240173	94.6372
1.654	0.240784	94.6372
1.655	0.241394	94.6372
1.656	0.241699	94.6372
1.657	0.242004	94.6372
1.658	0.24231	94.6372
1.659	0.242004	94.6372
1.66	0.241394	94.6372
1.661	0.240173	94.6372
1.662	0.238953	94.6372
1.663	0.237427	94.6372
1.664	0.235901	94.6372
1.665	0.23468	94.6372
1.666	0.233459	94.6372
1.667	0.232849	94.6372
1.668	0.232239	94.6372
1.669	0.231934	94.6372
1.67	0.231323	94.6372
1.671	0.230408	94.6372
1.672	0.229187	94.6372
1.673	0.228271	94.6372
1.674	0.227051	94.6372
1.675	0.22583	94.6372
1.676	0.224915	94.6372
1.677	0.223694	94.6372
1.678	0.222473	94.6372
1.679	0.221252	94.6372
1.68	0.219727	94.6372
1.681	0.217896	94.6372
1.682	0.215454	94.6372
1.683	0.213013	94.6372
1.684	0.210266	94.6372
1.685	0.207214	94.6372
1.686	0.203857	94.6372
1.687	0.200195	94.6372
1.688	0.196533	94.6372
1.689	0.192566	94.6372
1.69	0.188599	94.6372
1.691	0.184631	94.6372
1.692	0.180664	94.6372
1.693	0.177002	94.6372
1.694	0.17395	94.6372
1.695	0.170898	94.6372
1.696	0.168152	94.6372
1.697	0.165405	94.6372
1.698	0.162659	94.6372
1.699	0.159302	94.6372
1.7	0.15564	94.6372
1.701	0.151672	94.6372
1.702	0.147095	94.6372
1.703	0.142212	94.6372
1.704	0.137024	94.6372
1.705	0.131226	94.6372
1.706	0.125122	94.6372
1.707	0.118713	94.6372
1.708	0.111389	94.6372
1.709	0.103455	94.6372
1.71	0.0949097	94.6372
1.711	0.0854492	94.6372
1.712	0.0756836	94.6372
1.713	0.0656128	94.6372
1.714	0.055542	94.6372
1.715	0.0454712	94.6372
1.716	0.0357056	94.6372
1.717	0.0265503	94.6372
1.718	0.0183105	94.6372
1.719	0.010376	94.6372
1.72	0.00335693	94.6372
1.721	-0.00335693	94.6372
1.722	-0.00946045	94.6372
1.723	-0.0152588	94.6372
1.724	-0.0201416	94.6372
1.725	-0.0244141	94.6372
1.726	-0.027771	94.6372
1.727	-0.0302124	94.6372
1.728	-0.0320435	94.6372
1.729	-0.0332642	94.6372
1.73	-0.0338745	94.6372
1.731	-0.0338745	94.6372
1.732	-0.0338745	94.6372
1.733	-0.0335693	94.6372
1.734	-0.0335693	94.6372
1.735	-0.0338745	94.6372
1.736	-0.03479	94.6372
1.737	-0.0363159	94.6372
1.738	-0.038147	94.6372
1.739	-0.0405884	94.6372
1.74	-0.0430298	94.6372
1.741	-0.0457764	94.6372
1.742	-0.0491333	94.6372
1.743	-0.0531006	94.6372
1.744	-0.0570679	94.6372
1.745	-0.0616455	94.6372
1.746	-0.0665283	94.6372
1.747	-0.0714111	94.6372
1.748	-0.0762939	94.6372
1.749	-0.0808716	94.6372
1.75	-0.0848389	94.6372
1.751	-0.088501	94.6372
1.752	-0.0915527	94.6372
1.753	-0.0939941	94.6372
1.754	-0.0961304	94.6372
1.755	-0.0979614	94.6372
1.756	-0.0991821	94.6372
1.757	-0.0997925	94.6372
1.758	-0.100403	94.6372
1.759	-0.100403	94.6372
1.76	-0.100403	94.6372
1.761	-0.100403	94.6372
1.762	-0.100403	94.6372
1.763	-0.100708	94.6372
1.764	-0.101013	94.6372
1.765	-0.101929	94.6372
1.766	-0.103455	94.6372
1.767	-0.105896	94.6372
1.768	-0.108948	94.6372
1.769	-0.11261	94.6372
1.77	-0.117493	94.6372
1.771	-0.122986	94.6372
1.772	-0.128784	94.6372
1.773	-0.134888	94.6372
1.774	-0.141296	94.6372
1.775	-0.14801	94.6372
1.776	-0.154114	94.6372
1.777	-0.159607	94.6372
1.778	-0.163574	94.6372
1.779	-0.16571	94.6372
1.78	-0.16571	94.6372
1.781	-0.162354	94.6372
1.782	-0.155029	94.6372
1.783	-0.142822	94.6372
1.784	-0.125427	94.6372
1.785	-0.102234	94.6372
1.786	-0.0732422	94.6372
1.787	-0.0384521	94.6372
1.788	0.00305176	94.6372
1.789	0.0509644	94.6372
1.79	0.104675	94.6372
1.791	0.16449	94.6372
1.792	0.229187	94.6372
1.793	0.297852	94.6372
1.794	0.369263	94.6372
1.795	0.441284	94.6372
1.796	0.51178	94.6372
1.797	0.578918	94.6372
1.798	0.639954	94.6372
1.799	0.692444	94.6372
1.8	0.735474	94.6372
1.801	0.767517	94.6372
1.802	0.788269	94.6372
1.803	0.797119	94.6372
1.804	0.793762	94.6372
1.805	0.777893	94.6372
1.806	0.748901	94.6372
1.807	0.706787	94.6372
1.808	0.652466	94.6372
1.809	0.587463	94.6372
1.81	0.513306	94.6372
1.811	0.431824	94.6372
1.812	0.345459	94.6372
1.813	0.256042	94.6372
1.814	0.165405	94.6372
1.815	0.0753784	94.6372
1.816	-0.0125122	94.6372
1.817	-0.0973511	94.6372
1.818	-0.177917	94.6372
1.819	-0.253296	94.6372
1.82	-0.322266	94.6372
1.821	-0.384216	94.6372
1.822	-0.439148	94.6372
1.823	-0.48645	94.6372
1.824	-0.526733	94.6372
1.825	-0.560303	94.6372
1.826	-0.587463	94.6372
1.827	-0.609131	94.6372
1.828	-0.625	94.6372
1.829	-0.635986	94.6372
1.83	-0.643005	94.6372
1.831	-0.646057	94.6372
1.832	-0.645447	94.6372
1.833	-0.641479	94.6372
1.834	-0.634766	94.6372
1.835	-0.625305	94.6372
1.836	-0.613708	94.6372
1.837	-0.599976	94.6372
1.838	-0.584412	94.6372
1.839	-0.567322	94.6372
1.84	-0.548706	94.6372
1.841	-0.528564	94.6372
1.842	-0.507507	94.6372
1.843	-0.485535	94.6372
1.844	-0.463562	94.6372
1.845	-0.441284	94.6372
1.846	-0.419006	94.6372
1.847	-0.396423	94.6372
1.848	-0.374146	94.6372
1.849	-0.352173	94.6372
1.85	-0.330505	94.6372
1.851	-0.309143	94.6372
1.852	-0.289001	94.6372
1.853	-0.269775	94.6372
1.854	-0.25177	94.6372
1.855	-0.235901	94.6372
1.856	-0.222168	94.6372
1.857	-0.210571	94.6372
1.858	-0.200806	94.6372
1.859	-0.193481	94.6372
1.86	-0.187988	94.6372
1.861	-0.184021	94.6372
1.862	-0.181885	94.6372
1.863	-0.180969	94.6372
1.864	-0.180969	94.6372
1.865	-0.18219	94.6372
1.866	-0.184021	94.6372
1.867	-0.186462	94.6372
1.868	-0.189209	94.6372
1.869	-0.19165	94.6372
1.87	-0.194092	94.6372
1.871	-0.196228	94.6372
1.872	-0.197754	94.6372
1.873	-0.198975	94.6372
1.874	-0.19928	94.6372
1.875	-0.19928	94.6372
1.876	-0.198669	94.6372
1.877	-0.197449	94.6372
1.878	-0.195923	94.6372
1.879	-0.193481	94.6372
1.88	-0.190735	94.6372
1.881	-0.187683	94.6372
1.882	-0.184937	94.6372
1.883	-0.181885	94.6372
1.884	-0.179138	94.6372
1.885	-0.176697	94.6372
1.886	-0.174255	94.6372
1.887	-0.171509	94.6372
1.888	-0.168457	94.6372
1.889	-0.1651	94.6372
1.89	-0.161743	94.6372
1.891	-0.158691	94.6372
1.892	-0.155334	94.6372
1.893	-0.152588	94.6372
1.894	-0.149536	94.6372
1.895	-0.147095	94.6372
1.896	-0.144653	94.6372
1.897	-0.142212	94.6372
1.898	-0.139771	94.6372
1.899	-0.137024	94.6372
1.9	-0.134277	94.6372
1.901	-0.131531	94.6372
1.902	-0.128784	94.6372
1.903	-0.125732	94.6372
1.904	-0.122681	94.6372
1.905	-0.119629	94.6372
1.906	-0.117188	94.6372
1.907	-0.115051	94.6372
1.908	-0.113525	94.6372
1.909	-0.11261	94.6372
1.91	-0.112	94.6372
1.911	-0.111389	94.6372
1.912	-0.110168	94.6372
1.913	-0.108643	94.6372
1.914	-0.106506	94.6372
1.915	-0.10376	94.6372
1.916	-0.101318	94.6372
1.917	-0.0991821	94.6372
1.918	-0.0979614	94.6372
1.919	-0.0970459	94.6372
1.92	-0.0964355	94.6372
1.921	-0.0961304	94.6372
1.922	-0.09552	94.6372
1.923	-0.0946045	94.6372
1.924	-0.0939941	94.6372
1.925	-0.0930786	94.6372
1.926	-0.0918579	94.6372
1.927	-0.090332	94.6372
1.928	-0.0881958	94.6372
1.929	-0.0857544	94.6372
1.93	-0.0827026	94.6372
1.931	-0.0796509	94.6372
1.932	-0.0765991	94.6372
1.933	-0.072937	94.6372
1.934	-0.0692749	94.6372
1.935	-0.0653076	94.6372
1.936	-0.0610352	94.6372
1.937	-0.0567627	94.6372
1.938	-0.0521851	94.6372
1.939	-0.0473022	94.6372
1.94	-0.0424194	94.6372
1.941	-0.0378418	94.6372
1.942	-0.0338745	94.6372
1.943	-0.0302124	94.6372
1.944	-0.0271606	94.6372
1.945	-0.0247192	94.6372
1.946	-0.022583	94.6372
1.947	-0.0213623	94.6372
1.948	-0.0204468	94.6372
1.949	-0.0198364	94.6372
1.95	-0.0195313	94.6372
1.951	-0.0192261	94.6372
1.952	-0.0192261	94.6372
1.953	-0.0195313	94.6372
1.954	-0.0195313	94.6372
1.955	-0.0198364	94.6372
1.956	-0.0195313	94.6372
1.957	-0.0192261	94.6372
1.958	-0.0189209	94.6372
1.959	-0.0183105	94.6372
1.96	-0.017395	94.6372
1.961	-0.0161743	94.6372
1.962	-0.0149536	94.6372
1.963	-0.0137329	94.6372
1.964	-0.0128174	94.6372
1.965	-0.0115967	94.6372
1.966	-0.0106812	94.6372
1.967	-0.00976563	94.6372
1.968	-0.00915527	94.6372
1.969	-0.0088501	94.6372
1.97	-0.00915527	94.6372
1.971	-0.00976563	94.6372
1.972	-0.0109863	94.6372
1.973	-0.0125122	94.6372
1.974	-0.0143433	94.6372
1.975	-0.0170898	94.6372
1.976	-0.0198364	94.6372
1.977	-0.0231934	94.6372
1.978	-0.0268555	94.6372
1.979	-0.0305176	94.6372
1.98	-0.0344849	94.6372
1.981	-0.0384521	94.6372
1.982	-0.0424194	94.6372
1.983	-0.0460815	94.6372
1.984	-0.0491333	94.6372
1.985	-0.0515747	94.6372
1.986	-0.0534058	94.6372
1.987	-0.0546265	94.6372
1.988	-0.0552368	94.6372
1.989	-0.0552368	94.6372
1.99	-0.0549316	94.6372
1.991	-0.0546265	94.6372
1.992	-0.0540161	94.6372
1.993	-0.0534058	94.6372
1.994	-0.0527954	94.6372
1.995	-0.0521851	94.6372
1.996	-0.0518799	94.6372
1.997	-0.0521851	94.6372
1.998	-0.0527954	94.6372
1.999	-0.0540161	94.6372
2	-0.0552368	94.6372
2.001	-0.057373	94.6372
2.002	-0.0598145	94.6372
2.003	-0.0628662	94.6372
2.004	-0.065918	94.6372
2.005	-0.0686646	94.6372
2.006	-0.0708008	94.6372
2.007	-0.0726318	94.6372
2.008	-0.0735474	94.6372
2.009	-0.0738525	94.6372
2.01	-0.0735474	94.6372
2.011	-0.0723267	94.6372
2.012	-0.071106	94.6372
2.013	-0.0692749	94.6372
2.014	-0.0668335	94.6372
2.015	-0.0643921	94.6372
2.016	-0.0613403	94.6372
2.017	-0.0579834	94.6372
2.018	-0.0543213	94.6372
2.019	-0.0506592	94.6372
2.02	-0.0473022	94.6372
2.021	-0.0445557	94.6372
2.022	-0.0421143	94.6372
2.023	-0.039978	94.6372
2.024	-0.0384521	94.6372
2.025	-0.0375366	94.6372
2.026	-0.0372314	94.6372
2.027	-0.0375366	94.6372
2.028	-0.0384521	94.6372
2.029	-0.0402832	94.6372
2.03	-0.0424194	94.6372
2.031	-0.0448608	94.6372
2.032	-0.0476074	94.6372
2.033	-0.0506592	94.6372
2.034	-0.0534058	94.6372
2.035	-0.0561523	94.6372
2.036	-0.0582886	94.6372
2.037	-0.06073	94.6372
2.038	-0.062561	94.6372
2.039	-0.0643921	94.6372
2.04	-0.0662231	94.6372
2.041	-0.067749	94.6372
2.042	-0.0695801	94.6372
2.043	-0.071106	94.6372
2.044	-0.0723267	94.6372
2.045	-0.0735474	94.6372
2.046	-0.0744629	94.6372
2.047	-0.0753784	94.6372
2.048	-0.0762939	94.6372
2.049	-0.0772095	94.6372
2.05	-0.0787354	94.6372
2.051	-0.0808716	94.6372
2.052	-0.0836182	94.6372
2.053	-0.0872803	94.6372
2.054	-0.0918579	94.6372
2.055	-0.0973511	94.6372
2.056	-0.10376	94.6372
2.057	-0.111084	94.6372
2.058	-0.119019	94.6372
2.059	-0.128174	94.6372
2.06	-0.137634	94.6372
2.061	-0.14801	94.6372
2.062	-0.158691	94.6372
2.063	-0.169983	94.6372
2.064	-0.181274	94.6372
2.065	-0.192566	94.6372
2.066	-0.204468	94.6372
2.067	-0.21637	94.6372
2.068	-0.227966	94.6372
2.069	-0.239563	94.6372
2.07	-0.250549	94.6372
2.071	-0.260925	94.6372
2.072	-0.270691	94.6372
2.073	-0.279846	94.6372
2.074	-0.288391	94.6372
2.075	-0.296021	94.6372
2.076	-0.30304	94.6372
2.077	-0.309753	94.6372
2.078	-0.315552	94.6372
2.079	-0.321045	94.6372
2.08	-0.326233	94.6372
2.081	-0.330811	94.6372
2.082	-0.334778	94.6372
2.083	-0.338135	94.6372
2.084	-0.340576	94.6372
2.085	-0.342407	94.6372
2.086	-0.343628	94.6372
2.087	-0.344238	94.6372
2.088	-0.344238	94.6372
2.089	-0.343933	94.6372
2.09	-0.343323	94.6372
2.091	-0.342407	94.6372
2.092	-0.341187	94.6372
2.093	-0.339661	94.6372
2.094	-0.338135	94.6372
2.095	-0.336609	94.6372
2.096	-0.334778	94.6372
2.097	-0.332947	94.6372
2.098	-0.331421	94.6372
2.099	-0.3302	94.6372
2.1	-0.329285	94.6372
2.101	-0.328979	94.6372
2.102	-0.328979	94.6372
2.103	-0.32959	94.6372
2.104	-0.330505	94.6372
2.105	-0.332031	94.6372
2.106	-0.333252	94.6372
2.107	-0.335083	94.6372
2.108	-0.336914	94.6372
2.109	-0.338745	94.6372
2.11	-0.340881	94.6372
2.111	-0.343018	94.6372
2.112	-0.345154	94.6372
2.113	-0.347595	94.6372
2.114	-0.349731	94.6372
2.115	-0.351563	94.6372
2.116	-0.353088	94.6372
2.117	-0.354614	94.6372
2.118	-0.355835	94.6372
2.119	-0.357056	94.6372
2.12	-0.358276	94.6372
2.121	-0.359802	94.6372
2.122	-0.361938	94.6372
2.123	-0.36438	94.6372
2.124	-0.367432	94.6372
2.125	-0.370789	94.6372
2.126	-0.374451	94.6372
2.127	-0.378723	94.6372
2.128	-0.38269	94.6372
2.129	-0.386658	94.6372
2.13	-0.390625	94.6372
2.131	-0.393982	94.6372
2.132	-0.396118	94.6372
2.133	-0.396729	94.6372
2.134	-0.395203	94.6372
2.135	-0.391235	94.6372
2.136	-0.384827	94.6372
2.137	-0.375061	94.6372
2.138	-0.361633	94.6372
2.139	-0.344238	94.6372
2.14	-0.32196	94.6372
2.141	-0.2948	94.6372
2.142	-0.262451	94.6372
2.143	-0.224304	94.6372
2.144	-0.180664	94.6372
2.145	-0.13092	94.6372
2.146	-0.0756836	94.6372
2.147	-0.0158691	94.6372
2.148	0.0473022	94.6372
2.149	0.111694	94.6372
2.15	0.175476	94.6372
2.151	0.237122	94.6372
2.152	0.2948	94.6372
2.153	0.346375	94.6372
2.154	0.39032	94.6372
2.155	0.42572	94.6372
2.156	0.45166	94.6372
2.157	0.467224	94.6372
2.158	0.472107	94.6372
2.159	0.465698	94.6372
2.16	0.447388	94.6372
2.161	0.41687	94.6372
2.162	0.374451	94.6372
2.163	0.32074	94.6372
2.164	0.257874	94.6372
2.165	0.187683	94.6372
2.166	0.112	94.6372
2.167	0.0335693	94.6372
2.168	-0.0463867	85.3485
2.169	-0.125122	85.3485
2.17	-0.201721	85.3485
2.171	-0.274963	85.3485
2.172	-0.344238	85.3485
2.173	-0.408325	85.3485
2.174	-0.467224	85.3485
2.175	-0.52002	85.3485
2.176	-0.567017	85.3485
2.177	-0.60791	85.3485
2.178	-0.6427	85.3485
2.179	-0.671997	85.3485
2.18	-0.696411	85.3485
2.181	-0.716553	85.3485
2.182	-0.733337	85.3485
2.183	-0.74646	85.3485
2.184	-0.756836	85.3485
2.185	-0.764465	85.3485
2.186	-0.769958	85.3485
2.187	-0.773621	85.3485
2.188	-0.774841	85.3485
2.189	-0.774536	85.3485
2.19	-0.7724	85.3485
2.191	-0.768738	85.3485
2.192	-0.763245	85.3485
2.193	-0.756226	85.3485
2.194	-0.747375	85.3485
2.195	-0.736694	85.3485
2.196	-0.723877	85.3485
2.197	-0.709839	85.3485
2.198	-0.69397	85.3485
2.199	-0.676575	85.3485
2.2	-0.657959	85.3485
2.201	-0.638123	85.3485
2.202	-0.617371	85.3485
2.203	-0.596313	85.3485
2.204	-0.574646	85.3485
2.205	-0.552673	85.3485
2.206	-0.530701	85.3485
2.207	-0.508728	85.3485
2.208	-0.486755	85.3485
2.209	-0.465393	85.3485
2.21	-0.444336	85.3485
2.211	-0.4245	85.3485
2.212	-0.405884	85.3485
2.213	-0.388794	85.3485
2.214	-0.373535	85.3485
2.215	-0.360107	85.3485
2.216	-0.348816	85.3485
2.217	-0.339355	85.3485
2.218	-0.331726	85.3485
2.219	-0.326233	85.3485
2.22	-0.322266	85.3485
2.221	-0.319824	85.3485
2.222	-0.319214	85.3485
2.223	-0.319824	85.3485
2.224	-0.321045	85.3485
2.225	-0.322571	85.3485
2.226	-0.324402	85.3485
2.227	-0.326233	85.3485
2.228	-0.327759	85.3485
2.229	-0.328979	85.3485
2.23	-0.32959	85.3485
2.231	-0.32959	85.3485
2.232	-0.328979	85.3485
2.233	-0.327759	85.3485
2.234	-0.325928	85.3485
2.235	-0.323181	85.3485
2.236	-0.319824	85.3485
2.237	-0.316162	85.3485
2.238	-0.312195	85.3485
2.239	-0.307922	85.3485
2.24	-0.303345	85.3485
2.241	-0.298462	85.3485
2.242	-0.293274	85.3485
2.243	-0.288086	85.3485
2.244	-0.283203	85.3485
2.245	-0.278625	85.3485
2.246	-0.274353	85.3485
2.247	-0.270996	85.3485
2.248	-0.267944	85.3485
2.249	-0.265503	85.3485
2.25	-0.263062	85.3485
2.251	-0.26123	85.3485
2.252	-0.259094	85.3485
2.253	-0.256653	85.3485
2.254	-0.254822	85.3485
2.255	-0.252991	85.3485
2.256	-0.25177	85.3485
2.257	-0.250549	85.3485
2.258	-0.249023	85.3485
2.259	-0.246887	85.3485
2.26	-0.244751	85.3485
2.261	-0.242004	85.3485
2.262	-0.239258	85.3485
2.263	-0.236206	85.3485
2.264	-0.232849	85.3485
2.265	-0.228882	85.3485
2.266	-0.224304	85.3485
2.267	-0.219727	85.3485
2.268	-0.214844	85.3485
2.269	-0.209656	85.3485
2.27	-0.205078	85.3485
2.271	-0.2005	85.3485
2.272	-0.196228	85.3485
2.273	-0.192566	85.3485
2.274	-0.189514	85.3485
2.275	-0.187073	85.3485
2.276	-0.185242	85.3485
2.277	-0.183411	85.3485
2.278	-0.181885	85.3485
2.279	-0.180664	85.3485
2.28	-0.179138	85.3485
2.281	-0.178223	85.3485
2.282	-0.177307	85.3485
2.283	-0.177002	85.3485
2.284	-0.176697	85.3485
2.285	-0.176392	85.3485
2.286	-0.176086	85.3485
2.287	-0.175476	85.3485
2.288	-0.174255	85.3485
2.289	-0.173035	85.3485
2.29	-0.170898	85.3485
2.291	-0.168457	85.3485
2.292	-0.16571	85.3485
2.293	-0.162964	85.3485
2.294	-0.160522	85.3485
2.295	-0.157776	85.3485
2.296	-0.155334	85.3485
2.297	-0.153198	85.3485
2.298	-0.151062	85.3485
2.299	-0.149536	85.3485
2.3	-0.14801	85.3485
2.301	-0.146484	85.3485
2.302	-0.145264	85.3485
2.303	-0.144348	85.3485
2.304	-0.143433	85.3485
2.305	-0.142517	85.3485
2.306	-0.141602	85.3485
2.307	-0.140381	85.3485
2.308	-0.138855	85.3485
2.309	-0.137024	85.3485
2.31	-0.134888	85.3485
2.311	-0.132446	85.3485
2.312	-0.1297	85.3485
2.313	-0.126343	85.3485
2.314	-0.122375	85.3485
2.315	-0.118103	85.3485
2.316	-0.11322	85.3485
2.317	-0.108337	85.3485
2.318	-0.103455	85.3485
2.319	-0.098877	85.3485
2.32	-0.0942993	85.3485
2.321	-0.090332	85.3485
2.322	-0.0866699	85.3485
2.323	-0.083313	85.3485
2.324	-0.0808716	85.3485
2.325	-0.0790405	85.3485
2.326	-0.078125	85.3485
2.327	-0.078125	85.3485
2.328	-0.0793457	85.3485
2.329	-0.0811768	85.3485
2.33	-0.0836182	85.3485
2.331	-0.0863647	85.3485
2.332	-0.0897217	85.3485
2.333	-0.0930786	85.3485
2.334	-0.0967407	85.3485
2.335	-0.100708	85.3485
2.336	-0.10437	85.3485
2.337	-0.107727	85.3485
2.338	-0.110779	85.3485
2.339	-0.11322	85.3485
2.34	-0.115662	85.3485
2.341	-0.117188	85.3485
2.342	-0.118408	85.3485
2.343	-0.119019	85.3485
2.344	-0.119019	85.3485
2.345	-0.118713	85.3485
2.346	-0.118103	85.3485
2.347	-0.117493	85.3485
2.348	-0.116882	85.3485
2.349	-0.115967	85.3485
2.35	-0.115051	85.3485
2.351	-0.113831	85.3485
2.352	-0.112	85.3485
2.353	-0.109863	85.3485
2.354	-0.107117	85.3485
2.355	-0.10437	85.3485
2.356	-0.101013	85.3485
2.357	-0.0982666	85.3485
2.358	-0.09552	85.3485
2.359	-0.093689	85.3485
2.36	-0.0918579	85.3485
2.361	-0.090332	85.3485
2.362	-0.0888062	85.3485
2.363	-0.0869751	85.3485
2.364	-0.085144	85.3485
2.365	-0.083313	85.3485
2.366	-0.0814819	85.3485
2.367	-0.0796509	85.3485
2.368	-0.0784302	85.3485
2.369	-0.0772095	85.3485
2.37	-0.0765991	85.3485
2.371	-0.0759888	85.3485
2.372	-0.0753784	85.3485
2.373	-0.0747681	85.3485
2.374	-0.0741577	85.3485
2.375	-0.0735474	85.3485
2.376	-0.072937	85.3485
2.377	-0.0723267	85.3485
2.378	-0.0717163	85.3485
2.379	-0.071106	85.3485
2.38	-0.0701904	85.3485
2.381	-0.0695801	85.3485
2.382	-0.0686646	85.3485
2.383	-0.0674438	85.3485
2.384	-0.0665283	85.3485
2.385	-0.065918	85.3485
2.386	-0.0653076	85.3485
2.387	-0.0653076	85.3485
2.388	-0.0653076	85.3485
2.389	-0.0656128	85.3485
2.39	-0.0656128	85.3485
2.391	-0.0650024	85.3485
2.392	-0.0643921	85.3485
2.393	-0.0634766	85.3485
2.394	-0.0628662	85.3485
2.395	-0.0622559	85.3485
2.396	-0.0622559	85.3485
2.397	-0.062561	85.3485
2.398	-0.0628662	85.3485
2.399	-0.0634766	85.3485
2.4	-0.0643921	85.3485
2.401	-0.0653076	85.3485
2.402	-0.065918	85.3485
2.403	-0.0668335	85.3485
2.404	-0.0674438	85.3485
2.405	-0.0683594	85.3485
2.406	-0.0695801	85.3485
2.407	-0.071106	85.3485
2.408	-0.0732422	85.3485
2.409	-0.0756836	85.3485
2.41	-0.0784302	85.3485
2.411	-0.0817871	85.3485
2.412	-0.0857544	85.3485
2.413	-0.0897217	85.3485
2.414	-0.0946045	85.3485
2.415	-0.0997925	85.3485
2.416	-0.105591	85.3485
2.417	-0.111694	85.3485
2.418	-0.118408	85.3485
2.419	-0.125427	85.3485
2.42	-0.133057	85.3485
2.421	-0.141296	85.3485
2.422	-0.149841	85.3485
2.423	-0.158691	85.3485
2.424	-0.167542	85.3485
2.425	-0.176086	85.3485
2.426	-0.184937	85.3485
2.427	-0.193481	85.3485
2.428	-0.202026	85.3485
2.429	-0.210266	85.3485
2.43	-0.218506	85.3485
2.431	-0.226135	85.3485
2.432	-0.233765	85.3485
2.433	-0.240784	85.3485
2.434	-0.247192	85.3485
2.435	-0.253296	85.3485
2.436	-0.259094	85.3485
2.437	-0.264893	85.3485
2.438	-0.270691	85.3485
2.439	-0.276794	85.3485
2.44	-0.282593	85.3485
2.441	-0.287781	85.3485
2.442	-0.292358	85.3485
2.443	-0.29541	85.3485
2.444	-0.297241	85.3485
2.445	-0.297852	85.3485
2.446	-0.297852	85.3485
2.447	-0.296936	85.3485
2.448	-0.295715	85.3485
2.449	-0.294189	85.3485
2.45	-0.292053	85.3485
2.451	-0.289917	85.3485
2.452	-0.287476	85.3485
2.453	-0.285339	85.3485
2.454	-0.282898	85.3485
2.455	-0.280762	85.3485
2.456	-0.278625	85.3485
2.457	-0.277405	85.3485
2.458	-0.276489	85.3485
2.459	-0.276184	85.3485
2.46	-0.276794	85.3485
2.461	-0.27771	85.3485
2.462	-0.278931	85.3485
2.463	-0.280457	85.3485
2.464	-0.281982	85.3485
2.465	-0.283203	85.3485
2.466	-0.283813	85.3485
2.467	-0.283813	85.3485
2.468	-0.283203	85.3485
2.469	-0.281982	85.3485
2.47	-0.280151	85.3485
2.471	-0.277405	85.3485
2.472	-0.274353	85.3485
2.473	-0.270691	85.3485
2.474	-0.266724	85.3485
2.475	-0.263367	85.3485
2.476	-0.260315	85.3485
2.477	-0.257874	85.3485
2.478	-0.256348	85.3485
2.479	-0.255127	85.3485
2.48	-0.255127	85.3485
2.481	-0.256653	85.3485
2.482	-0.259399	85.3485
2.483	-0.263367	85.3485
2.484	-0.26886	85.3485
2.485	-0.275269	85.3485
2.486	-0.282288	85.3485
2.487	-0.289307	85.3485
2.488	-0.296631	85.3485
2.489	-0.30304	85.3485
2.49	-0.308533	85.3485
2.491	-0.3125	85.3485
2.492	-0.314331	85.3485
2.493	-0.313721	85.3485
2.494	-0.310059	85.3485
2.495	-0.30304	85.3485
2.496	-0.292358	85.3485
2.497	-0.277405	85.3485
2.498	-0.257874	85.3485
2.499	-0.23407	85.3485
2.5	-0.205383	85.3485
2.501	-0.172119	85.3485
2.502	-0.133667	85.3485
2.503	-0.0900269	85.3485
2.504	-0.0418091	85.3485
2.505	0.0109863	85.3485
2.506	0.067749	85.3485
2.507	0.127869	85.3485
2.508	0.189514	85.3485
2.509	0.25116	85.3485
2.51	0.310974	85.3485
2.511	0.367126	85.3485
2.512	0.418396	85.3485
2.513	0.462952	85.3485
2.514	0.499268	85.3485
2.515	0.527039	85.3485
2.516	0.545654	85.3485
2.517	0.554504	85.3485
2.518	0.553284	85.3485
2.519	0.541382	85.3485
2.52	0.518799	85.3485
2.521	0.484924	85.3485
2.522	0.440979	85.3485
2.523	0.387878	85.3485
2.524	0.327148	85.3485
2.525	0.260925	85.3485
2.526	0.190735	85.3485
2.527	0.118713	85.3485
2.528	0.0463867	85.3485
2.529	-0.0244141	85.3485
2.53	-0.0927734	85.3485
2.531	-0.158081	85.3485
2.532	-0.218811	85.3485
2.533	-0.274963	85.3485
2.534	-0.325928	85.3485
2.535	-0.371704	85.3485
2.536	-0.412292	85.3485
2.537	-0.448303	85.3485
2.538	-0.479736	85.3485
2.539	-0.506897	85.3485
2.54	-0.530396	85.3485
2.541	-0.550232	85.3485
2.542	-0.567017	85.3485
2.543	-0.581055	85.3485
2.544	-0.592651	85.3485
2.545	-0.602112	85.3485
2.546	-0.609741	85.3485
2.547	-0.615234	85.3485
2.548	-0.618896	85.3485
2.549	-0.620728	85.3485
2.55	-0.620117	85.3485
2.551	-0.617065	85.3485
2.552	-0.611877	85.3485
2.553	-0.604858	85.3485
2.554	-0.595703	85.3485
2.555	-0.584106	85.3485
2.556	-0.570984	85.3485
2.557	-0.55542	85.3485
2.558	-0.53833	85.3485
2.559	-0.519714	85.3485
2.56	-0.499573	85.3485
2.561	-0.478516	85.3485
2.562	-0.456848	85.3485
2.563	-0.435181	85.3485
2.564	-0.413208	85.3485
2.565	-0.392151	85.3485
2.566	-0.371704	85.3485
2.567	-0.351868	85.3485
2.568	-0.333252	85.3485
2.569	-0.315552	85.3485
2.57	-0.298767	85.3485
2.571	-0.283508	85.3485
2.572	-0.269775	85.3485
2.573	-0.257263	85.3485
2.574	-0.246582	85.3485
2.575	-0.236816	85.3485
2.576	-0.228271	85.3485
2.577	-0.220337	85.3485
2.578	-0.213623	85.3485
2.579	-0.20752	85.3485
2.58	-0.202332	85.3485
2.581	-0.197449	85.3485
2.582	-0.192871	85.3485
2.583	-0.188293	85.3485
2.584	-0.183105	85.3485
2.585	-0.177917	85.3485
2.586	-0.172119	85.3485
2.587	-0.166321	85.3485
2.588	-0.160828	85.3485
2.589	-0.155334	85.3485
2.59	-0.150146	85.3485
2.591	-0.145264	85.3485
2.592	-0.140686	85.3485
2.593	-0.136108	85.3485
2.594	-0.131836	85.3485
2.595	-0.128174	85.3485
2.596	-0.124512	85.3485
2.597	-0.121155	85.3485
2.598	-0.118103	85.3485
2.599	-0.115051	85.3485
2.6	-0.112305	85.3485
2.601	-0.109253	85.3485
2.602	-0.106506	85.3485
2.603	-0.103455	85.3485
2.604	-0.100708	85.3485
2.605	-0.0976563	85.3485
2.606	-0.0949097	85.3485
2.607	-0.0918579	85.3485
2.608	-0.0888062	85.3485
2.609	-0.0860596	85.3485
2.61	-0.0830078	85.3485
2.611	-0.0805664	85.3485
2.612	-0.078125	85.3485
2.613	-0.0765991	85.3485
2.614	-0.0750732	85.3485
2.615	-0.0738525	85.3485
2.616	-0.0723267	85.3485
2.617	-0.071106	85.3485
2.618	-0.0698853	85.3485
2.619	-0.0686646	85.3485
2.62	-0.0674438	85.3485
2.621	-0.065918	85.3485
2.622	-0.0643921	85.3485
2.623	-0.0628662	85.3485
2.624	-0.0613403	85.3485
2.625	-0.0595093	85.3485
2.626	-0.0576782	85.3485
2.627	-0.055542	85.3485
2.628	-0.0534058	85.3485
2.629	-0.0515747	85.3485
2.63	-0.0497437	85.3485
2.631	-0.0473022	85.3485
2.632	-0.0448608	85.3485
2.633	-0.0418091	85.3485
2.634	-0.0384521	85.3485
2.635	-0.0350952	85.3485
2.636	-0.0314331	85.3485
2.637	-0.0271606	85.3485
2.638	-0.0228882	85.3485
2.639	-0.0180054	85.3485
2.64	-0.0131226	85.3485
2.641	-0.00793457	85.3485
2.642	-0.00274658	85.3485
2.643	0.00213623	85.3485
2.644	0.00671387	85.3485
2.645	0.0112915	85.3485
2.646	0.0152588	85.3485
2.647	0.0192261	85.3485
2.648	0.022583	85.3485
2.649	0.0256348	85.3485
2.65	0.027771	85.3485
2.651	0.0292969	85.3485
2.652	0.0299072	85.3485
2.653	0.0299072	85.3485
2.654	0.0292969	85.3485
2.655	0.0280762	85.3485
2.656	0.0268555	85.3485
2.657	0.0256348	85.3485
2.658	0.0247192	85.3485
2.659	0.0244141	85.3485
2.66	0.0247192	85.3485
2.661	0.0253296	85.3485
2.662	0.0271606	85.3485
2.663	0.0296021	85.3485
2.664	0.032959	85.3485
2.665	0.0369263	85.3485
2.666	0.0418091	85.3485
2.667	0.0473022	85.3485
2.668	0.0531006	85.3485
2.669	0.0595093	85.3485
2.67	0.0656128	85.3485
2.671	0.0720215	85.3485
2.672	0.0784302	85.3485
2.673	0.0848389	85.3485
2.674	0.0909424	85.3485
2.675	0.0967407	85.3485
2.676	0.102539	85.3485
2.677	0.108032	85.3485
2.678	0.112915	85.3485
2.679	0.116882	85.3485
2.68	0.119629	85.3485
2.681	0.121765	85.3485
2.682	0.122986	85.3485
2.683	0.123901	85.3485
2.684	0.124207	85.3485
2.685	0.124512	85.3485
2.686	0.124512	85.3485
2.687	0.124817	85.3485
2.688	0.124817	85.3485
2.689	0.125122	85.3485
2.69	0.125427	85.3485
2.691	0.124817	85.3485
2.692	0.123901	85.3485
2.693	0.122681	85.3485
2.694	0.121765	85.3485
2.695	0.121765	85.3485
2.696	0.122681	85.3485
2.697	0.124512	85.3485
2.698	0.126648	85.3485
2.699	0.129395	85.3485
2.7	0.132141	85.3485
2.701	0.135193	85.3485
2.702	0.138245	85.3485
2.703	0.141296	85.3485
2.704	0.144653	85.3485
2.705	0.148315	85.3485
2.706	0.151367	85.3485
2.707	0.153809	85.3485
2.708	0.155945	85.3485
2.709	0.157776	85.3485
2.71	0.158997	85.3485
2.711	0.159912	85.3485
2.712	0.160217	85.3485
2.713	0.160217	85.3485
2.714	0.159912	85.3485
2.715	0.159302	85.3485
2.716	0.158386	85.3485
2.717	0.157166	85.3485
2.718	0.155945	85.3485
2.719	0.155029	85.3485
2.72	0.154114	85.3485
2.721	0.153503	85.3485
2.722	0.153503	85.3485
2.723	0.154114	85.3485
2.724	0.155334	85.3485
2.725	0.157166	85.3485
2.726	0.159607	85.3485
2.727	0.162659	85.3485
2.728	0.166321	85.3485
2.729	0.170288	85.3485
2.73	0.175171	85.3485
2.731	0.180359	85.3485
2.732	0.186157	85.3485
2.733	0.192261	85.3485
2.734	0.198364	85.3485
2.735	0.204773	85.3485
2.736	0.210876	85.3485
2.737	0.216675	85.3485
2.738	0.221863	85.3485
2.739	0.226746	85.3485
2.74	0.231323	85.3485
2.741	0.235291	85.3485
2.742	0.238647	85.3485
2.743	0.241089	85.3485
2.744	0.24292	85.3485
2.745	0.244141	85.3485
2.746	0.244446	85.3485
2.747	0.244446	85.3485
2.748	0.244141	85.3485
2.749	0.243225	85.3485
2.75	0.24231	85.3485
2.751	0.240784	85.3485
2.752	0.238953	85.3485
2.753	0.237427	85.3485
2.754	0.235901	85.3485
2.755	0.234375	85.3485
2.756	0.233154	85.3485
2.757	0.231628	85.3485
2.758	0.230713	85.3485
2.759	0.229797	85.3485
2.76	0.228882	85.3485
2.761	0.227966	85.3485
2.762	0.22644	85.3485
2.763	0.224609	85.3485
2.764	0.222473	85.3485
2.765	0.219727	85.3485
2.766	0.21637	85.3485
2.767	0.212708	85.3485
2.768	0.20874	85.3485
2.769	0.204468	85.3485
2.77	0.200195	85.3485
2.771	0.195618	85.3485
2.772	0.191345	85.3485
2.773	0.187073	85.3485
2.774	0.1828	85.3485
2.775	0.178528	85.3485
2.776	0.174561	85.3485
2.777	0.169983	85.3485
2.778	0.165405	85.3485
2.779	0.160828	85.3485
2.78	0.15564	85.3485
2.781	0.150146	85.3485
2.782	0.144653	85.3485
2.783	0.138855	85.3485
2.784	0.133057	85.3485
2.785	0.127563	85.3485
2.786	0.12207	85.3485
2.787	0.116577	85.3485
2.788	0.110779	85.3485
2.789	0.104675	85.3485
2.79	0.0979614	85.3485
2.791	0.0909424	85.3485
2.792	0.0839233	85.3485
2.793	0.0772095	85.3485
2.794	0.0704956	85.3485
2.795	0.0640869	85.3485
2.796	0.0576782	85.3485
2.797	0.0518799	85.3485
2.798	0.0460815	85.3485
2.799	0.0408936	85.3485
2.8	0.0357056	85.3485
2.801	0.0308228	85.3485
2.802	0.0256348	85.3485
2.803	0.0210571	85.3485
2.804	0.0164795	85.3485
2.805	0.012207	85.3485
2.806	0.00823975	85.3485
2.807	0.00488281	85.3485
2.808	0.00152588	85.3485
2.809	-0.0012207	85.3485
2.81	-0.00335693	85.3485
2.811	-0.00518799	85.3485
2.812	-0.00671387	85.3485
2.813	-0.00762939	85.3485
2.814	-0.00793457	85.3485
2.815	-0.00762939	85.3485
2.816	-0.00671387	85.3485
2.817	-0.00488281	85.3485
2.818	-0.00305176	85.3485
2.819	-0.000915527	85.3485
2.82	0.0012207	85.3485
2.821	0.00335693	85.3485
2.822	0.00579834	85.3485
2.823	0.00823975	85.3485
2.824	0.0109863	85.3485
2.825	0.0137329	85.3485
2.826	0.0161743	85.3485
2.827	0.0183105	85.3485
2.828	0.0204468	85.3485
2.829	0.0222778	85.3485
2.83	0.0238037	85.3485
2.831	0.0253296	85.3485
2.832	0.0262451	85.3485
2.833	0.0268555	85.3485
2.834	0.0271606	85.3485
2.835	0.0271606	85.3485
2.836	0.0265503	85.3485
2.837	0.0256348	85.3485
2.838	0.0244141	85.3485
2.839	0.0228882	85.3485
2.84	0.020752	85.3485
2.841	0.0183105	85.3485
2.842	0.0149536	85.3485
2.843	0.0109863	85.3485
2.844	0.00640869	85.3485
2.845	0.0012207	85.3485
2.846	-0.00396729	85.3485
2.847	-0.00915527	85.3485
2.848	-0.0140381	85.3485
2.849	-0.0186157	85.3485
2.85	-0.022583	85.3485
2.851	-0.0259399	85.3485
2.852	-0.0274658	85.3485
2.853	-0.0271606	85.3485
2.854	-0.0244141	85.3485
2.855	-0.0183105	85.3485
2.856	-0.00854492	85.3485
2.857	0.00518799	85.3485
2.858	0.0231934	85.3485
2.859	0.0460815	85.3485
2.86	0.0735474	85.3485
2.861	0.106506	85.3485
2.862	0.144043	85.3485
2.863	0.186462	85.3485
2.864	0.23407	85.3485
2.865	0.286255	85.3485
2.866	0.342712	85.3485
2.867	0.402527	85.3485
2.868	0.464172	85.3485
2.869	0.526123	85.3485
2.87	0.586853	85.3485
2.871	0.644531	85.3485
2.872	0.697327	85.3485
2.873	0.743713	85.3485
2.874	0.782471	85.3485
2.875	0.812683	85.3485
2.876	0.83374	85.3485
2.877	0.845337	85.3485
2.878	0.846863	85.3485
2.879	0.837708	85.3485
2.88	0.817261	85.3485
2.881	0.785217	85.3485
2.882	0.742798	85.3485
2.883	0.690308	85.3485
2.884	0.629578	85.3485
2.885	0.562439	85.3485
2.886	0.490723	85.3485
2.887	0.416565	85.3485
2.888	0.341492	83.3333
2.889	0.266724	83.3333
2.89	0.194092	83.3333
2.891	0.124817	83.3333
2.892	0.0592041	83.3333
2.893	-0.00213623	83.3333
2.894	-0.0585938	83.3333
2.895	-0.110168	83.3333
2.896	-0.156555	83.3333
2.897	-0.197144	83.3333
2.898	-0.232239	83.3333
2.899	-0.262146	83.3333
2.9	-0.28717	83.3333
2.901	-0.308228	83.3333
2.902	-0.325623	83.3333
2.903	-0.339966	83.3333
2.904	-0.351257	83.3333
2.905	-0.359802	83.3333
2.906	-0.366516	83.3333
2.907	-0.370789	83.3333
2.908	-0.37323	83.3333
2.909	-0.374146	83.3333
2.91	-0.372925	83.3333
2.911	-0.369873	83.3333
2.912	-0.36499	83.3333
2.913	-0.358582	83.3333
2.914	-0.350342	83.3333
2.915	-0.339966	83.3333
2.916	-0.327454	83.3333
2.917	-0.3125	83.3333
2.918	-0.29541	83.3333
2.919	-0.276184	83.3333
2.92	-0.255737	83.3333
2.921	-0.234375	83.3333
2.922	-0.212097	83.3333
2.923	-0.190125	83.3333
2.924	-0.167847	83.3333
2.925	-0.145874	83.3333
2.926	-0.124207	83.3333
2.927	-0.103149	83.3333
2.928	-0.0830078	83.3333
2.929	-0.0640869	83.3333
2.93	-0.0460815	83.3333
2.931	-0.0302124	83.3333
2.932	-0.0158691	83.3333
2.933	-0.00335693	83.3333
2.934	0.00701904	83.3333
2.935	0.015564	83.3333
2.936	0.022583	83.3333
2.937	0.027771	83.3333
2.938	0.0320435	83.3333
2.939	0.0350952	83.3333
2.94	0.0372314	83.3333
2.941	0.0387573	83.3333
2.942	0.039978	83.3333
2.943	0.0415039	83.3333
2.944	0.0427246	83.3333
2.945	0.0442505	83.3333
2.946	0.0463867	83.3333
2.947	0.0488281	83.3333
2.948	0.0515747	83.3333
2.949	0.0546265	83.3333
2.95	0.0582886	83.3333
2.951	0.0619507	83.3333
2.952	0.065918	83.3333
2.953	0.0701904	83.3333
2.954	0.0744629	83.3333
2.955	0.0787354	83.3333
2.956	0.0823975	83.3333
2.957	0.0857544	83.3333
2.958	0.0888062	83.3333
2.959	0.0915527	83.3333
2.96	0.093689	83.3333
2.961	0.09552	83.3333
2.962	0.0967407	83.3333
2.963	0.0973511	83.3333
2.964	0.0970459	83.3333
2.965	0.0961304	83.3333
2.966	0.0946045	83.3333
2.967	0.0927734	83.3333
2.968	0.0909424	83.3333
2.969	0.0894165	83.3333
2.97	0.088501	83.3333
2.971	0.0881958	83.3333
2.972	0.0881958	83.3333
2.973	0.0888062	83.3333
2.974	0.0897217	83.3333
2.975	0.0909424	83.3333
2.976	0.0930786	83.3333
2.977	0.0958252	83.3333
2.978	0.0994873	83.3333
2.979	0.104065	83.3333
2.98	0.109558	83.3333
2.981	0.115051	83.3333
2.982	0.120544	83.3333
2.983	0.126038	83.3333
2.984	0.131226	83.3333
2.985	0.136108	83.3333
2.986	0.140381	83.3333
2.987	0.144348	83.3333
2.988	0.1474	83.3333
2.989	0.149841	83.3333
2.99	0.151672	83.3333
2.991	0.152283	83.3333
2.992	0.152588	83.3333
2.993	0.152283	83.3333
2.994	0.151672	83.3333
2.995	0.151367	83.3333
2.996	0.151367	83.3333
2.997	0.151672	83.3333
2.998	0.151978	83.3333
2.999	0.152588	83.3333
3	0.153198	83.3333
3.001	0.154114	83.3333
3.002	0.15564	83.3333
3.003	0.157166	83.3333
3.004	0.158997	83.3333
3.005	0.161133	83.3333
3.006	0.163574	83.3333
3.007	0.166016	83.3333
3.008	0.168457	83.3333
3.009	0.170593	83.3333
3.01	0.173035	83.3333
3.011	0.174866	83.3333
3.012	0.176697	83.3333
3.013	0.178223	83.3333
3.014	0.179443	83.3333
3.015	0.180359	83.3333
3.016	0.180969	83.3333
3.017	0.180969	83.3333
3.018	0.180664	83.3333
3.019	0.180054	83.3333
3.02	0.179138	83.3333
3.021	0.178223	83.3333
3.022	0.176697	83.3333
3.023	0.175476	83.3333
3.024	0.174255	83.3333
3.025	0.173035	83.3333
3.026	0.172424	83.3333
3.027	0.172424	83.3333
3.028	0.172729	83.3333
3.029	0.17334	83.3333
3.03	0.174255	83.3333
3.031	0.175171	83.3333
3.032	0.176392	83.3333
3.033	0.177612	83.3333
3.034	0.179138	83.3333
3.035	0.180969	83.3333
3.036	0.1828	83.3333
3.037	0.184937	83.3333
3.038	0.186768	83.3333
3.039	0.188599	83.3333
3.04	0.189819	83.3333
3.041	0.19104	83.3333
3.042	0.192261	83.3333
3.043	0.193176	83.3333
3.044	0.193787	83.3333
3.045	0.194702	83.3333
3.046	0.195313	83.3333
3.047	0.195923	83.3333
3.048	0.196533	83.3333
3.049	0.197144	83.3333
3.05	0.197754	83.3333
3.051	0.198669	83.3333
3.052	0.19928	83.3333
3.053	0.19989	83.3333
3.054	0.200195	83.3333
3.055	0.2005	83.3333
3.056	0.200195	83.3333
3.057	0.199585	83.3333
3.058	0.198669	83.3333
3.059	0.196838	83.3333
3.06	0.195007	83.3333
3.061	0.192261	83.3333
3.062	0.189209	83.3333
3.063	0.186157	83.3333
3.064	0.182495	83.3333
3.065	0.178833	83.3333
3.066	0.175476	83.3333
3.067	0.171814	83.3333
3.068	0.168457	83.3333
3.069	0.165405	83.3333
3.07	0.162659	83.3333
3.071	0.160522	83.3333
3.072	0.158691	83.3333
3.073	0.157471	83.3333
3.074	0.157166	83.3333
3.075	0.157471	83.3333
3.076	0.158081	83.3333
3.077	0.158691	83.3333
3.078	0.159607	83.3333
3.079	0.160828	83.3333
3.08	0.162354	83.3333
3.081	0.164185	83.3333
3.082	0.16571	83.3333
3.083	0.167542	83.3333
3.084	0.169067	83.3333
3.085	0.170593	83.3333
3.086	0.172119	83.3333
3.087	0.173645	83.3333
3.088	0.175171	83.3333
3.089	0.176697	83.3333
3.09	0.178223	83.3333
3.091	0.179749	83.3333
3.092	0.180969	83.3333
3.093	0.18219	83.3333
3.094	0.183105	83.3333
3.095	0.183716	83.3333
3.096	0.184326	83.3333
3.097	0.184631	83.3333
3.098	0.184937	83.3333
3.099	0.185242	83.3333
3.1	0.185547	83.3333
3.101	0.185547	83.3333
3.102	0.185242	83.3333
3.103	0.184937	83.3333
3.104	0.184021	83.3333
3.105	0.183411	83.3333
3.106	0.182495	83.3333
3.107	0.18158	83.3333
3.108	0.180664	83.3333
3.109	0.179443	83.3333
3.11	0.178223	83.3333
3.111	0.176697	83.3333
3.112	0.175171	83.3333
3.113	0.17334	83.3333
3.114	0.171204	83.3333
3.115	0.168457	83.3333
3.116	0.16571	83.3333
3.117	0.162659	83.3333
3.118	0.159607	83.3333
3.119	0.156555	83.3333
3.12	0.153198	83.3333
3.121	0.149841	83.3333
3.122	0.146484	83.3333
3.123	0.143127	83.3333
3.124	0.139465	83.3333
3.125	0.136108	83.3333
3.126	0.132446	83.3333
3.127	0.129395	83.3333
3.128	0.126038	83.3333
3.129	0.122681	83.3333
3.13	0.119324	83.3333
3.131	0.115662	83.3333
3.132	0.111694	83.3333
3.133	0.107422	83.3333
3.134	0.102539	83.3333
3.135	0.0973511	83.3333
3.136	0.0912476	83.3333
3.137	0.0845337	83.3333
3.138	0.0769043	83.3333
3.139	0.0686646	83.3333
3.14	0.0595093	83.3333
3.141	0.0500488	83.3333
3.142	0.0396729	83.3333
3.143	0.0289917	83.3333
3.144	0.0180054	83.3333
3.145	0.00701904	83.3333
3.146	-0.00366211	83.3333
3.147	-0.0140381	83.3333
3.148	-0.0241089	83.3333
3.149	-0.0341797	83.3333
3.15	-0.0439453	83.3333
3.151	-0.0537109	83.3333
3.152	-0.0634766	83.3333
3.153	-0.072937	83.3333
3.154	-0.0817871	83.3333
3.155	-0.0900269	83.3333
3.156	-0.0979614	83.3333
3.157	-0.10498	83.3333
3.158	-0.111694	83.3333
3.159	-0.117493	83.3333
3.16	-0.122986	83.3333
3.161	-0.128174	83.3333
3.162	-0.133057	83.3333
3.163	-0.137329	83.3333
3.164	-0.140686	83.3333
3.165	-0.143433	83.3333
3.166	-0.144958	83.3333
3.167	-0.145874	83.3333
3.168	-0.146179	83.3333
3.169	-0.146484	83.3333
3.17	-0.146179	83.3333
3.171	-0.145874	83.3333
3.172	-0.145569	83.3333
3.173	-0.144958	83.3333
3.174	-0.144653	83.3333
3.175	-0.144653	83.3333
3.176	-0.144958	83.3333
3.177	-0.145874	83.3333
3.178	-0.1474	83.3333
3.179	-0.149231	83.3333
3.18	-0.151978	83.3333
3.181	-0.155029	83.3333
3.182	-0.158691	83.3333
3.183	-0.162354	83.3333
3.184	-0.166321	83.3333
3.185	-0.170288	83.3333
3.186	-0.174255	83.3333
3.187	-0.177917	83.3333
3.188	-0.181274	83.3333
3.189	-0.184326	83.3333
3.19	-0.186768	83.3333
3.191	-0.188904	83.3333
3.192	-0.19043	83.3333
3.193	-0.191956	83.3333
3.194	-0.192871	83.3333
3.195	-0.193481	83.3333
3.196	-0.194092	83.3333
3.197	-0.194702	83.3333
3.198	-0.195618	83.3333
3.199	-0.196838	83.3333
3.2	-0.198669	83.3333
3.201	-0.201416	83.3333
3.202	-0.205078	83.3333
3.203	-0.209351	83.3333
3.204	-0.214539	83.3333
3.205	-0.220337	83.3333
3.206	-0.226135	83.3333
3.207	-0.231628	83.3333
3.208	-0.236511	83.3333
3.209	-0.239868	83.3333
3.21	-0.241394	83.3333
3.211	-0.240784	83.3333
3.212	-0.237732	83.3333
3.213	-0.231628	83.3333
3.214	-0.222168	83.3333
3.215	-0.20874	83.3333
3.216	-0.19104	83.3333
3.217	-0.168457	83.3333
3.218	-0.140991	83.3333
3.219	-0.108643	83.3333
3.22	-0.071106	83.3333
3.221	-0.0289917	83.3333
3.222	0.0177002	83.3333
3.223	0.0692749	83.3333
3.224	0.124817	83.3333
3.225	0.183716	83.3333
3.226	0.244446	83.3333
3.227	0.305481	83.3333
3.228	0.36499	83.3333
3.229	0.421448	83.3333
3.23	0.473633	83.3333
3.231	0.519409	83.3333
3.232	0.558167	83.3333
3.233	0.588074	83.3333
3.234	0.608521	83.3333
3.235	0.619202	83.3333
3.236	0.619507	83.3333
3.237	0.609741	83.3333
3.238	0.588989	83.3333
3.239	0.557251	83.3333
3.24	0.515137	83.3333
3.241	0.462341	83.3333
3.242	0.401001	83.3333
3.243	0.332031	83.3333
3.244	0.257874	83.3333
3.245	0.179749	83.3333
3.246	0.0997925	83.3333
3.247	0.0192261	83.3333
3.248	-0.0598145	83.3333
3.249	-0.136414	83.3333
3.25	-0.209656	83.3333
3.251	-0.27832	83.3333
3.252	-0.342407	83.3333
3.253	-0.401306	83.3333
3.254	-0.455017	83.3333
3.255	-0.503235	83.3333
3.256	-0.545349	83.3333
3.257	-0.58136	83.3333
3.258	-0.612183	83.3333
3.259	-0.637512	83.3333
3.26	-0.658569	83.3333
3.261	-0.675354	83.3333
3.262	-0.688477	83.3333
3.263	-0.698242	83.3333
3.264	-0.704956	83.3333
3.265	-0.708923	83.3333
3.266	-0.709839	83.3333
3.267	-0.708313	83.3333
3.268	-0.704041	83.3333
3.269	-0.697327	83.3333
3.27	-0.688171	83.3333
3.271	-0.67749	83.3333
3.272	-0.664673	83.3333
3.273	-0.650024	83.3333
3.274	-0.63385	83.3333
3.275	-0.616455	83.3333
3.276	-0.597534	83.3333
3.277	-0.577698	83.3333
3.278	-0.557251	83.3333
3.279	-0.536194	83.3333
3.28	-0.515137	83.3333
3.281	-0.49408	83.3333
3.282	-0.473633	83.3333
3.283	-0.453796	83.3333
3.284	-0.434875	83.3333
3.285	-0.41687	83.3333
3.286	-0.400085	83.3333
3.287	-0.384827	83.3333
3.288	-0.370789	83.3333
3.289	-0.358582	83.3333
3.29	-0.348206	83.3333
3.291	-0.339355	83.3333
3.292	-0.332336	83.3333
3.293	-0.326843	83.3333
3.294	-0.322876	83.3333
3.295	-0.320129	83.3333
3.296	-0.317993	83.3333
3.297	-0.316467	83.3333
3.298	-0.315552	83.3333
3.299	-0.314941	83.3333
3.3	-0.314331	83.3333
3.301	-0.314026	83.3333
3.302	-0.313416	83.3333
3.303	-0.312805	83.3333
3.304	-0.31189	83.3333
3.305	-0.310669	83.3333
3.306	-0.308838	83.3333
3.307	-0.306702	83.3333
3.308	-0.303955	83.3333
3.309	-0.301208	83.3333
3.31	-0.298462	83.3333
3.311	-0.295715	83.3333
3.312	-0.293274	83.3333
3.313	-0.291138	83.3333
3.314	-0.289307	83.3333
3.315	-0.288086	83.3333
3.316	-0.28717	83.3333
3.317	-0.28656	83.3333
3.318	-0.28656	83.3333
3.319	-0.28717	83.3333
3.32	-0.287476	83.3333
3.321	-0.288086	83.3333
3.322	-0.288696	83.3333
3.323	-0.288696	83.3333
3.324	-0.288696	83.3333
3.325	-0.288391	83.3333
3.326	-0.287781	83.3333
3.327	-0.28656	83.3333
3.328	-0.285034	83.3333
3.329	-0.283203	83.3333
3.33	-0.280457	83.3333
3.331	-0.2771	83.3333
3.332	-0.273132	83.3333
3.333	-0.268555	83.3333
3.334	-0.263367	83.3333
3.335	-0.258484	83.3333
3.336	-0.252991	83.3333
3.337	-0.247803	83.3333
3.338	-0.242615	83.3333
3.339	-0.237732	83.3333
3.34	-0.232849	83.3333
3.341	-0.228271	83.3333
3.342	-0.224304	83.3333
3.343	-0.220947	83.3333
3.344	-0.218506	83.3333
3.345	-0.21637	83.3333
3.346	-0.214844	83.3333
3.347	-0.213318	83.3333
3.348	-0.212097	83.3333
3.349	-0.210876	83.3333
3.35	-0.209656	83.3333
3.351	-0.20874	83.3333
3.352	-0.207825	83.3333
3.353	-0.207214	83.3333
3.354	-0.206604	83.3333
3.355	-0.205688	83.3333
3.356	-0.204773	83.3333
3.357	-0.203857	83.3333
3.358	-0.202637	83.3333
3.359	-0.201416	83.3333
3.36	-0.2005	83.3333
3.361	-0.199585	83.3333
3.362	-0.198669	83.3333
3.363	-0.197754	83.3333
3.364	-0.197144	83.3333
3.365	-0.196533	83.3333
3.366	-0.196533	83.3333
3.367	-0.196533	83.3333
3.368	-0.196838	83.3333
3.369	-0.197144	83.3333
3.37	-0.197449	83.3333
3.371	-0.197449	83.3333
3.372	-0.197449	83.3333
3.373	-0.197144	83.3333
3.374	-0.197144	83.3333
3.375	-0.197144	83.3333
3.376	-0.197449	83.3333
3.377	-0.197754	83.3333
3.378	-0.198059	83.3333
3.379	-0.198059	83.3333
3.38	-0.197754	83.3333
3.381	-0.196838	83.3333
3.382	-0.195618	83.3333
3.383	-0.193787	83.3333
3.384	-0.19165	83.3333
3.385	-0.189514	83.3333
3.386	-0.187683	83.3333
3.387	-0.185852	83.3333
3.388	-0.184326	83.3333
3.389	-0.182495	83.3333
3.39	-0.180359	83.3333
3.391	-0.178223	83.3333
3.392	-0.176086	83.3333
3.393	-0.174255	83.3333
3.394	-0.173035	83.3333
3.395	-0.172119	83.3333
3.396	-0.171814	83.3333
3.397	-0.172424	83.3333
3.398	-0.17395	83.3333
3.399	-0.176086	83.3333
3.4	-0.178833	83.3333
3.401	-0.18219	83.3333
3.402	-0.186462	83.3333
3.403	-0.191345	83.3333
3.404	-0.196838	83.3333
3.405	-0.201721	83.3333
3.406	-0.206299	83.3333
3.407	-0.210266	83.3333
3.408	-0.213623	83.3333
3.409	-0.21698	83.3333
3.41	-0.219727	83.3333
3.411	-0.222473	83.3333
3.412	-0.224609	83.3333
3.413	-0.22583	83.3333
3.414	-0.227051	83.3333
3.415	-0.227356	83.3333
3.416	-0.227661	83.3333
3.417	-0.227966	83.3333
3.418	-0.228577	83.3333
3.419	-0.229187	83.3333
3.42	-0.230103	83.3333
3.421	-0.231018	83.3333
3.422	-0.231934	83.3333
3.423	-0.233459	83.3333
3.424	-0.234985	83.3333
3.425	-0.236816	83.3333
3.426	-0.239258	83.3333
3.427	-0.242004	83.3333
3.428	-0.244446	83.3333
3.429	-0.247192	83.3333
3.43	-0.249939	83.3333
3.431	-0.25238	83.3333
3.432	-0.254517	83.3333
3.433	-0.256042	83.3333
3.434	-0.257568	83.3333
3.435	-0.258484	83.3333
3.436	-0.259399	83.3333
3.437	-0.259705	83.3333
3.438	-0.259705	83.3333
3.439	-0.26001	83.3333
3.44	-0.26001	83.3333
3.441	-0.26001	83.3333
3.442	-0.26001	83.3333
3.443	-0.26001	83.3333
3.444	-0.26001	83.3333
3.445	-0.259705	83.3333
3.446	-0.259399	83.3333
3.447	-0.258789	83.3333
3.448	-0.258179	83.3333
3.449	-0.257263	83.3333
3.45	-0.256042	83.3333
3.451	-0.254822	83.3333
3.452	-0.252991	83.3333
3.453	-0.250854	83.3333
3.454	-0.248718	83.3333
3.455	-0.246277	83.3333
3.456	-0.244141	83.3333
3.457	-0.242004	83.3333
3.458	-0.240479	83.3333
3.459	-0.238953	83.3333
3.46	-0.237732	83.3333
3.461	-0.236511	83.3333
3.462	-0.235596	83.3333
3.463	-0.235291	83.3333
3.464	-0.235291	83.3333
3.465	-0.236511	83.3333
3.466	-0.238342	83.3333
3.467	-0.240784	83.3333
3.468	-0.24353	83.3333
3.469	-0.246887	83.3333
3.47	-0.250549	83.3333
3.471	-0.254517	83.3333
3.472	-0.258484	83.3333
3.473	-0.262451	83.3333
3.474	-0.265808	83.3333
3.475	-0.26886	83.3333
3.476	-0.271606	83.3333
3.477	-0.273743	83.3333
3.478	-0.275879	83.3333
3.479	-0.277405	83.3333
3.48	-0.278931	83.3333
3.481	-0.280151	83.3333
3.482	-0.281372	83.3333
3.483	-0.282898	83.3333
3.484	-0.284119	83.3333
3.485	-0.28595	83.3333
3.486	-0.288391	83.3333
3.487	-0.291138	83.3333
3.488	-0.295105	83.3333
3.489	-0.299683	83.3333
3.49	-0.304871	83.3333
3.491	-0.311279	83.3333
3.492	-0.318298	83.3333
3.493	-0.325928	83.3333
3.494	-0.333862	83.3333
3.495	-0.342407	83.3333
3.496	-0.350952	83.3333
3.497	-0.359497	83.3333
3.498	-0.368347	83.3333
3.499	-0.377197	83.3333
3.5	-0.385742	83.3333
3.501	-0.394287	83.3333
3.502	-0.402832	83.3333
3.503	-0.411377	83.3333
3.504	-0.419922	83.3333
3.505	-0.427856	83.3333
3.506	-0.435486	83.3333
3.507	-0.44281	83.3333
3.508	-0.449829	83.3333
3.509	-0.456238	83.3333
3.51	-0.462646	83.3333
3.511	-0.469055	83.3333
3.512	-0.475464	83.3333
3.513	-0.481873	83.3333
3.514	-0.488281	83.3333
3.515	-0.49469	83.3333
3.516	-0.500793	83.3333
3.517	-0.506592	83.3333
3.518	-0.512085	83.3333
3.519	-0.517273	83.3333
3.52	-0.521851	83.3333
3.521	-0.526123	83.3333
3.522	-0.53009	83.3333
3.523	-0.533752	83.3333
3.524	-0.537109	83.3333
3.525	-0.539856	83.3333
3.526	-0.542297	83.3333
3.527	-0.544739	83.3333
3.528	-0.54718	83.3333
3.529	-0.549316	83.3333
3.53	-0.551758	83.3333
3.531	-0.553589	83.3333
3.532	-0.555725	83.3333
3.533	-0.557556	83.3333
3.534	-0.559082	83.3333
3.535	-0.560303	83.3333
3.536	-0.561218	83.3333
3.537	-0.562134	83.3333
3.538	-0.562744	83.3333
3.539	-0.56366	83.3333
3.54	-0.564575	83.3333
3.541	-0.565186	83.3333
3.542	-0.566406	83.3333
3.543	-0.567322	83.3333
3.544	-0.568542	83.3333
3.545	-0.569458	83.3333
3.546	-0.570679	83.3333
3.547	-0.571899	83.3333
3.548	-0.572815	83.3333
3.549	-0.574036	83.3333
3.55	-0.574951	83.3333
3.551	-0.575867	83.3333
3.552	-0.576782	83.3333
3.553	-0.578003	83.3333
3.554	-0.578918	83.3333
3.555	-0.579834	83.3333
3.556	-0.581055	83.3333
3.557	-0.582275	83.3333
3.558	-0.583801	83.3333
3.559	-0.585327	83.3333
3.56	-0.587769	83.3333
3.561	-0.59082	83.3333
3.562	-0.594482	83.3333
3.563	-0.598755	83.3333
3.564	-0.603027	83.3333
3.565	-0.6073	83.3333
3.566	-0.611572	83.3333
3.567	-0.615845	83.3333
3.568	-0.619507	83.3333
3.569	-0.622559	83.3333
3.57	-0.624695	83.3333
3.571	-0.625305	83.3333
3.572	-0.624084	83.3333
3.573	-0.620728	83.3333
3.574	-0.614014	83.3333
3.575	-0.603638	83.3333
3.576	-0.588989	83.3333
3.577	-0.569153	83.3333
3.578	-0.544434	83.3333
3.579	-0.514221	83.3333
3.58	-0.478821	83.3333
3.581	-0.438232	83.3333
3.582	-0.392456	83.3333
3.583	-0.341492	83.3333
3.584	-0.285339	83.3333
3.585	-0.224915	83.3333
3.586	-0.161133	83.3333
3.587	-0.0952148	83.3333
3.588	-0.0289917	83.3333
3.589	0.0354004	83.3333
3.59	0.0958252	83.3333
3.591	0.150452	83.3333
3.592	0.197144	83.3333
3.593	0.234985	83.3333
3.594	0.262756	83.3333
3.595	0.279846	83.3333
3.596	0.285645	83.3333
3.597	0.279846	83.3333
3.598	0.262451	83.3333
3.599	0.232849	83.3333
3.6	0.191345	83.3333
3.601	0.13855	83.3333
3.602	0.0759888	83.3333
3.603	0.00488281	83.3333
3.604	-0.0723267	83.3333
3.605	-0.153503	83.3333
3.606	-0.237122	83.5655
3.607	-0.32135	83.5655
3.608	-0.404053	83.5655
3.609	-0.484009	83.5655
3.61	-0.560913	83.5655
3.611	-0.63324	83.5655
3.612	-0.700378	83.5655
3.613	-0.762024	83.5655
3.614	-0.817261	83.5655
3.615	-0.866394	83.5655
3.616	-0.909729	83.5655
3.617	-0.94696	83.5655
3.618	-0.978394	83.5655
3.619	-1.00494	83.5655
3.62	-1.02631	83.5655
3.621	-1.0437	83.5655
3.622	-1.05713	83.5655
3.623	-1.0672	83.5655
3.624	-1.07422	83.5655
3.625	-1.07788	83.5655
3.626	-1.0791	83.5655
3.627	-1.07727	83.5655
3.628	-1.073	83.5655
3.629	-1.06598	83.5655
3.63	-1.05652	83.5655
3.631	-1.04462	83.5655
3.632	-1.03027	83.5655
3.633	-1.01379	83.5655
3.634	-0.995483	83.5655
3.635	-0.975342	83.5655
3.636	-0.953979	83.5655
3.637	-0.931702	83.5655
3.638	-0.908813	83.5655
3.639	-0.88623	83.5655
3.64	-0.863647	83.5655
3.641	-0.84137	83.5655
3.642	-0.819702	83.5655
3.643	-0.79834	83.5655
3.644	-0.777283	83.5655
3.645	-0.757141	83.5655
3.646	-0.737915	83.5655
3.647	-0.71991	83.5655
3.648	-0.703125	83.5655
3.649	-0.688171	83.5655
3.65	-0.675049	83.5655
3.651	-0.663452	83.5655
3.652	-0.653687	83.5655
3.653	-0.645752	83.5655
3.654	-0.639343	83.5655
3.655	-0.63446	83.5655
3.656	-0.631104	83.5655
3.657	-0.628967	83.5655
3.658	-0.627441	83.5655
3.659	-0.626831	83.5655
3.66	-0.626221	83.5655
3.661	-0.625916	83.5655
3.662	-0.625916	83.5655
3.663	-0.625916	83.5655
3.664	-0.626221	83.5655
3.665	-0.626221	83.5655
3.666	-0.626221	83.5655
3.667	-0.625305	83.5655
3.668	-0.623779	83.5655
3.669	-0.621643	83.5655
3.67	-0.618591	83.5655
3.671	-0.615234	83.5655
3.672	-0.611267	83.5655
3.673	-0.606995	83.5655
3.674	-0.602722	83.5655
3.675	-0.59845	83.5655
3.676	-0.594177	83.5655
3.677	-0.589905	83.5655
3.678	-0.585938	83.5655
3.679	-0.58197	83.5655
3.68	-0.578613	83.5655
3.681	-0.575562	83.5655
3.682	-0.572815	83.5655
3.683	-0.570984	83.5655
3.684	-0.569763	83.5655
3.685	-0.568848	83.5655
3.686	-0.568237	83.5655
3.687	-0.567932	83.5655
3.688	-0.567627	83.5655
3.689	-0.567627	83.5655
3.69	-0.567322	83.5655
3.691	-0.567322	83.5655
3.692	-0.566711	83.5655
3.693	-0.566101	83.5655
3.694	-0.56488	83.5655
3.695	-0.563049	83.5655
3.696	-0.560608	83.5655
3.697	-0.557861	83.5655
3.698	-0.555115	83.5655
3.699	-0.551758	83.5655
3.7	-0.548401	83.5655
3.701	-0.545349	83.5655
3.702	-0.541992	83.5655
3.703	-0.53894	83.5655
3.704	-0.536194	83.5655
3.705	-0.533447	83.5655
3.706	-0.530701	83.5655
3.707	-0.527344	83.5655
3.708	-0.524292	83.5655
3.709	-0.520935	83.5655
3.71	-0.517578	83.5655
3.711	-0.514221	83.5655
3.712	-0.510864	83.5655
3.713	-0.507507	83.5655
3.714	-0.504456	83.5655
3.715	-0.501404	83.5655
3.716	-0.498352	83.5655
3.717	-0.4953	83.5655
3.718	-0.491943	83.5655
3.719	-0.488281	83.5655
3.72	-0.484924	83.5655
3.721	-0.481262	83.5655
3.722	-0.477295	83.5655
3.723	-0.473633	83.5655
3.724	-0.470276	83.5655
3.725	-0.467529	83.5655
3.726	-0.466003	83.5655
3.727	-0.465088	83.5655
3.728	-0.464783	83.5655
3.729	-0.465088	83.5655
3.73	-0.465393	83.5655
3.731	-0.465393	83.5655
3.732	-0.465088	83.5655
3.733	-0.464478	83.5655
3.734	-0.464172	83.5655
3.735	-0.463562	83.5655
3.736	-0.462952	83.5655
3.737	-0.462646	83.5655
3.738	-0.462036	83.5655
3.739	-0.461426	83.5655
3.74	-0.46051	83.5655
3.741	-0.45929	83.5655
3.742	-0.457764	83.5655
3.743	-0.455933	83.5655
3.744	-0.454102	83.5655
3.745	-0.451965	83.5655
3.746	-0.449829	83.5655
3.747	-0.447693	83.5655
3.748	-0.445862	83.5655
3.749	-0.444336	83.5655
3.75	-0.443115	83.5655
3.751	-0.442505	83.5655
3.752	-0.442505	83.5655
3.753	-0.442505	83.5655
3.754	-0.443115	83.5655
3.755	-0.443726	83.5655
3.756	-0.444336	83.5655
3.757	-0.444946	83.5655
3.758	-0.445251	83.5655
3.759	-0.445862	83.5655
3.76	-0.447083	83.5655
3.761	-0.448303	83.5655
3.762	-0.449524	83.5655
3.763	-0.450745	83.5655
3.764	-0.45166	83.5655
3.765	-0.452576	83.5655
3.766	-0.453796	83.5655
3.767	-0.455017	83.5655
3.768	-0.456238	83.5655
3.769	-0.458069	83.5655
3.77	-0.4599	83.5655
3.771	-0.461731	83.5655
3.772	-0.463867	83.5655
3.773	-0.466003	83.5655
3.774	-0.46814	83.5655
3.775	-0.471191	83.5655
3.776	-0.474243	83.5655
3.777	-0.4776	83.5655
3.778	-0.481262	83.5655
3.779	-0.484619	83.5655
3.78	-0.487671	83.5655
3.781	-0.490723	83.5655
3.782	-0.493469	83.5655
3.783	-0.496216	83.5655
3.784	-0.498962	83.5655
3.785	-0.501709	83.5655
3.786	-0.50415	83.5655
3.787	-0.505981	83.5655
3.788	-0.507202	83.5655
3.789	-0.507507	83.5655
3.79	-0.507507	83.5655
3.791	-0.506897	83.5655
3.792	-0.506287	83.5655
3.793	-0.505371	83.5655
3.794	-0.504456	83.5655
3.795	-0.50415	83.5655
3.796	-0.503845	83.5655
3.797	-0.503845	83.5655
3.798	-0.503845	83.5655
3.799	-0.50354	83.5655
3.8	-0.503235	83.5655
3.801	-0.502625	83.5655
3.802	-0.502014	83.5655
3.803	-0.501099	83.5655
3.804	-0.500183	83.5655
3.805	-0.499268	83.5655
3.806	-0.498047	83.5655
3.807	-0.496521	83.5655
3.808	-0.4953	83.5655
3.809	-0.493469	83.5655
3.81	-0.491638	83.5655
3.811	-0.489197	83.5655
3.812	-0.48645	83.5655
3.813	-0.483093	83.5655
3.814	-0.479736	83.5655
3.815	-0.476074	83.5655
3.816	-0.472412	83.5655
3.817	-0.469055	83.5655
3.818	-0.466003	83.5655
3.819	-0.463562	83.5655
3.82	-0.461731	83.5655
3.821	-0.460205	83.5655
3.822	-0.458984	83.5655
3.823	-0.457764	83.5655
3.824	-0.456543	83.5655
3.825	-0.455322	83.5655
3.826	-0.454102	83.5655
3.827	-0.453491	83.5655
3.828	-0.452881	83.5655
3.829	-0.452576	83.5655
3.83	-0.452881	83.5655
3.831	-0.453186	83.5655
3.832	-0.453796	83.5655
3.833	-0.454407	83.5655
3.834	-0.455017	83.5655
3.835	-0.456238	83.5655
3.836	-0.458069	83.5655
3.837	-0.460205	83.5655
3.838	-0.462646	83.5655
3.839	-0.465088	83.5655
3.84	-0.467834	83.5655
3.841	-0.470276	83.5655
3.842	-0.472412	83.5655
3.843	-0.474548	83.5655
3.844	-0.476379	83.5655
3.845	-0.477905	83.5655
3.846	-0.479431	83.5655
3.847	-0.480652	83.5655
3.848	-0.481567	83.5655
3.849	-0.482483	83.5655
3.85	-0.483704	83.5655
3.851	-0.485229	83.5655
3.852	-0.487061	83.5655
3.853	-0.488892	83.5655
3.854	-0.491028	83.5655
3.855	-0.493164	83.5655
3.856	-0.495911	83.5655
3.857	-0.499573	83.5655
3.858	-0.503845	83.5655
3.859	-0.509338	83.5655
3.86	-0.515747	83.5655
3.861	-0.523071	83.5655
3.862	-0.531311	83.5655
3.863	-0.540161	83.5655
3.864	-0.549927	83.5655
3.865	-0.559998	83.5655
3.866	-0.570374	83.5655
3.867	-0.581055	83.5655
3.868	-0.591736	83.5655
3.869	-0.602112	83.5655
3.87	-0.611877	83.5655
3.871	-0.621338	83.5655
3.872	-0.630188	83.5655
3.873	-0.638733	83.5655
3.874	-0.646667	83.5655
3.875	-0.654297	83.5655
3.876	-0.661316	83.5655
3.877	-0.66803	83.5655
3.878	-0.674438	83.5655
3.879	-0.680542	83.5655
3.88	-0.68573	83.5655
3.881	-0.690002	83.5655
3.882	-0.693665	83.5655
3.883	-0.697021	83.5655
3.884	-0.699768	83.5655
3.885	-0.702209	83.5655
3.886	-0.704346	83.5655
3.887	-0.706787	83.5655
3.888	-0.709229	83.5655
3.889	-0.71167	83.5655
3.89	-0.714111	83.5655
3.891	-0.716553	83.5655
3.892	-0.718994	83.5655
3.893	-0.72113	83.5655
3.894	-0.723267	83.5655
3.895	-0.725098	83.5655
3.896	-0.726318	83.5655
3.897	-0.726929	83.5655
3.898	-0.726624	83.5655
3.899	-0.725403	83.5655
3.9	-0.723877	83.5655
3.901	-0.721741	83.5655
3.902	-0.718994	83.5655
3.903	-0.716248	83.5655
3.904	-0.713501	83.5655
3.905	-0.710449	83.5655
3.906	-0.707092	83.5655
3.907	-0.704041	83.5655
3.908	-0.700684	83.5655
3.909	-0.697632	83.5655
3.91	-0.69519	83.5655
3.911	-0.693054	83.5655
3.912	-0.691528	83.5655
3.913	-0.690918	83.5655
3.914	-0.691223	83.5655
3.915	-0.692139	83.5655
3.916	-0.693359	83.5655
3.917	-0.694885	83.5655
3.918	-0.696716	83.5655
3.919	-0.698853	83.5655
3.92	-0.701294	83.5655
3.921	-0.703735	83.5655
3.922	-0.706787	83.5655
3.923	-0.709839	83.5655
3.924	-0.712585	83.5655
3.925	-0.715637	83.5655
3.926	-0.718384	83.5655
3.927	-0.721436	83.5655
3.928	-0.724487	83.5655
3.929	-0.727844	83.5655
3.93	-0.730591	83.5655
3.931	-0.733032	83.5655
3.932	-0.734863	83.5655
3.933	-0.735474	83.5655
3.934	-0.734863	83.5655
3.935	-0.732422	83.5655
3.936	-0.727539	83.5655
3.937	-0.71991	83.5655
3.938	-0.708923	83.5655
3.939	-0.693665	83.5655
3.94	-0.674133	83.5655
3.941	-0.649719	83.5655
3.942	-0.620117	83.5655
3.943	-0.585327	83.5655
3.944	-0.544739	83.5655
3.945	-0.498962	83.5655
3.946	-0.447693	83.5655
3.947	-0.39093	83.5655
3.948	-0.329285	83.5655
3.949	-0.264282	83.5655
3.95	-0.196838	83.5655
3.951	-0.128784	83.5655
3.952	-0.0622559	83.5655
3.953	0.000915527	83.5655
3.954	0.0588989	83.5655
3.955	0.108948	83.5655
3.956	0.150146	83.5655
3.957	0.181274	83.5655
3.958	0.201721	83.5655
3.959	0.210571	83.5655
3.96	0.207214	83.5655
3.961	0.191345	83.5655
3.962	0.162659	83.5655
3.963	0.12146	83.5655
3.964	0.0680542	83.5655
3.965	0.00457764	83.5655
3.966	-0.0683594	83.5655
3.967	-0.148315	83.5655
3.968	-0.23407	83.5655
3.969	-0.322876	83.5655
3.97	-0.413208	83.5655
3.971	-0.50293	83.5655
3.972	-0.59021	83.5655
3.973	-0.673523	83.5655
3.974	-0.752258	83.5655
3.975	-0.825195	83.5655
3.976	-0.892029	83.5655
3.977	-0.951843	83.5655
3.978	-1.00464	83.5655
3.979	-1.05011	83.5655
3.98	-1.08856	83.5655
3.981	-1.1203	83.5655
3.982	-1.14563	83.5655
3.983	-1.16547	83.5655
3.984	-1.1795	83.5655
3.985	-1.18866	83.5655
3.986	-1.19354	83.5655
3.987	-1.19415	83.5655
3.988	-1.19141	83.5655
3.989	-1.18561	83.5655
3.99	-1.17676	83.5655
3.991	-1.16608	83.5655
3.992	-1.15295	83.5655
3.993	-1.138	83.5655
3.994	-1.12152	83.5655
3.995	-1.1026	83.5655
3.996	-1.08215	83.5655
3.997	-1.05988	83.5655
3.998	-1.03607	83.5655
3.999	-1.01105	83.5655
4	-0.985718	83.5655
4.001	-0.960083	83.5655
4.002	-0.934753	83.5655
4.003	-0.910034	83.5655
4.004	-0.885925	83.5655
4.005	-0.863037	83.5655
4.006	-0.841064	83.5655
4.007	-0.820313	83.5655
4.008	-0.800476	83.5655
4.009	-0.78186	83.5655
4.01	-0.764771	83.5655
4.011	-0.749512	83.5655
4.012	-0.736084	83.5655
4.013	-0.724792	83.5655
4.014	-0.715637	83.5655
4.015	-0.708618	83.5655
4.016	-0.70343	83.5655
4.017	-0.699463	83.5655
4.018	-0.697021	83.5655
4.019	-0.695496	83.5655
4.02	-0.694275	83.5655
4.021	-0.693665	83.5655
4.022	-0.693054	83.5655
4.023	-0.692139	83.5655
4.024	-0.691223	83.5655
4.025	-0.690002	83.5655
4.026	-0.688477	83.5655
4.027	-0.686646	83.5655
4.028	-0.684509	143.541
4.029	-0.682373	143.541
4.03	-0.679626	143.541
4.031	-0.67627	143.541
4.032	-0.672913	143.541
4.033	-0.66925	143.541
4.034	-0.665588	143.541
4.035	-0.662231	143.541
4.036	-0.658875	143.541
4.037	-0.655518	143.541
4.038	-0.652161	143.541
4.039	-0.649109	143.541
4.04	-0.645752	143.541
4.041	-0.6427	143.541
4.042	-0.639648	143.541
4.043	-0.636902	143.541
4.044	-0.63385	143.541
4.045	-0.631104	143.541
4.046	-0.628357	143.541
4.047	-0.625916	143.541
4.048	-0.623779	143.541
4.049	-0.621643	143.541
4.05	-0.619812	143.541
4.051	-0.617981	143.541
4.052	-0.616455	143.541
4.053	-0.614929	143.541
4.054	-0.613098	143.541
4.055	-0.611267	143.541
4.056	-0.609131	143.541
4.057	-0.606384	143.541
4.058	-0.603333	143.541
4.059	-0.59967	143.541
4.06	-0.595703	143.541
4.061	-0.591431	143.541
4.062	-0.586548	143.541
4.063	-0.58136	143.541
4.064	-0.575867	143.541
4.065	-0.570374	143.541
4.066	-0.56427	143.541
4.067	-0.558472	143.541
4.068	-0.552673	143.541
4.069	-0.546875	143.541
4.07	-0.541382	143.541
4.071	-0.536194	143.541
4.072	-0.531311	143.541
4.073	-0.527649	143.541
4.074	-0.524597	143.541
4.075	-0.522766	143.541
4.076	-0.521851	143.541
4.077	-0.52124	143.541
4.078	-0.52124	143.541
4.079	-0.52063	143.541
4.08	-0.52002	143.541
4.081	-0.518799	143.541
4.082	-0.517273	143.541
4.083	-0.515442	143.541
4.084	-0.513306	143.541
4.085	-0.510559	143.541
4.086	-0.507202	143.541
4.087	-0.503235	143.541
4.088	-0.498657	143.541
4.089	-0.493774	143.541
4.09	-0.488586	143.541
4.091	-0.483093	143.541
4.092	-0.4776	143.541
4.093	-0.472412	143.541
4.094	-0.467834	143.541
4.095	-0.463867	143.541
4.096	-0.460815	143.541
4.097	-0.458679	143.541
4.098	-0.457153	143.541
4.099	-0.456543	143.541
4.1	-0.456238	143.541
4.101	-0.456238	143.541
4.102	-0.456543	143.541
4.103	-0.457458	143.541
4.104	-0.458069	143.541
4.105	-0.458679	143.541
4.106	-0.45929	143.541
4.107	-0.458984	143.541
4.108	-0.458374	143.541
4.109	-0.457153	143.541
4.11	-0.455627	143.541
4.111	-0.453796	143.541
4.112	-0.45166	143.541
4.113	-0.449524	143.541
4.114	-0.447083	143.541
4.115	-0.444641	143.541
4.116	-0.4422	143.541
4.117	-0.439758	143.541
4.118	-0.437012	143.541
4.119	-0.43457	143.541
4.12	-0.431824	143.541
4.121	-0.428772	143.541
4.122	-0.42572	143.541
4.123	-0.422974	143.541
4.124	-0.420532	143.541
4.125	-0.418701	143.541
4.126	-0.417786	143.541
4.127	-0.41748	143.541
4.128	-0.41748	143.541
4.129	-0.417175	143.541
4.13	-0.417175	143.541
4.131	-0.41748	143.541
4.132	-0.418091	143.541
4.133	-0.419006	143.541
4.134	-0.420532	143.541
4.135	-0.422974	143.541
4.136	-0.426025	143.541
4.137	-0.429688	143.541
4.138	-0.434265	143.541
4.139	-0.439148	143.541
4.14	-0.444336	143.541
4.141	-0.449524	143.541
4.142	-0.454407	143.541
4.143	-0.458984	143.541
4.144	-0.463257	143.541
4.145	-0.467224	143.541
4.146	-0.471191	143.541
4.147	-0.474854	143.541
4.148	-0.478516	143.541
4.149	-0.481567	143.541
4.15	-0.484924	143.541
4.151	-0.487671	143.541
4.152	-0.490112	143.541
4.153	-0.491943	143.541
4.154	-0.493469	143.541
4.155	-0.494385	143.541
4.156	-0.49469	143.541
4.157	-0.494385	143.541
4.158	-0.493469	143.541
4.159	-0.492249	143.541
4.16	-0.491028	143.541
4.161	-0.489807	143.541
4.162	-0.488586	143.541
4.163	-0.487061	143.541
4.164	-0.485535	143.541
4.165	-0.483704	143.541
4.166	-0.481873	143.541
4.167	-0.480042	143.541
4.168	-0.47821	143.541
4.169	-0.476685	143.541
4.17	-0.474854	143.541
4.171	-0.472717	143.541
4.172	-0.470886	143.541
4.173	-0.469055	143.541
4.174	-0.467224	143.541
4.175	-0.465698	143.541
4.176	-0.463867	143.541
4.177	-0.462036	143.541
4.178	-0.460205	143.541
4.179	-0.457764	143.541
4.18	-0.455322	143.541
4.181	-0.452271	143.541
4.182	-0.448608	143.541
4.183	-0.444946	143.541
4.184	-0.440979	143.541
4.185	-0.437012	143.541
4.186	-0.43335	143.541
4.187	-0.430298	143.541
4.188	-0.427551	143.541
4.189	-0.42511	143.541
4.19	-0.422974	143.541
4.191	-0.421143	143.541
4.192	-0.419922	143.541
4.193	-0.418701	143.541
4.194	-0.417786	143.541
4.195	-0.41687	143.541
4.196	-0.415955	143.541
4.197	-0.415649	143.541
4.198	-0.415649	143.541
4.199	-0.41626	143.541
4.2	-0.417175	143.541
4.201	-0.418701	143.541
4.202	-0.420227	143.541
4.203	-0.421753	143.541
4.204	-0.423279	143.541
4.205	-0.4245	143.541
4.206	-0.42572	143.541
4.207	-0.426941	143.541
4.208	-0.428467	143.541
4.209	-0.429993	143.541
4.21	-0.431824	143.541
4.211	-0.434265	143.541
4.212	-0.436707	143.541
4.213	-0.439758	143.541
4.214	-0.443115	143.541
4.215	-0.446472	143.541
4.216	-0.450439	143.541
4.217	-0.454407	143.541
4.218	-0.458679	143.541
4.219	-0.463257	143.541
4.22	-0.468445	143.541
4.221	-0.473328	143.541
4.222	-0.478821	143.541
4.223	-0.484314	143.541
4.224	-0.490112	143.541
4.225	-0.496216	143.541
4.226	-0.502319	143.541
4.227	-0.508423	143.541
4.228	-0.514526	143.541
4.229	-0.52063	143.541
4.23	-0.526733	143.541
4.231	-0.533142	143.541
4.232	-0.539246	143.541
4.233	-0.545654	143.541
4.234	-0.552063	143.541
4.235	-0.558472	143.541
4.236	-0.565186	143.541
4.237	-0.571899	143.541
4.238	-0.578613	143.541
4.239	-0.585632	143.541
4.24	-0.592651	143.541
4.241	-0.59967	143.541
4.242	-0.606689	143.541
4.243	-0.613708	143.541
4.244	-0.620422	143.541
4.245	-0.626831	143.541
4.246	-0.632629	143.541
4.247	-0.638123	143.541
4.248	-0.643311	143.541
4.249	-0.648193	143.541
4.25	-0.652466	143.541
4.251	-0.656128	143.541
4.252	-0.65918	143.541
4.253	-0.661926	143.541
4.254	-0.664063	143.541
4.255	-0.665894	143.541
4.256	-0.667725	143.541
4.257	-0.669556	143.541
4.258	-0.671692	143.541
4.259	-0.673828	143.541
4.26	-0.675659	143.541
4.261	-0.67688	143.541
4.262	-0.67749	143.541
4.263	-0.67749	143.541
4.264	-0.67749	143.541
4.265	-0.67749	143.541
4.266	-0.677185	143.541
4.267	-0.677185	143.541
4.268	-0.67688	143.541
4.269	-0.67627	143.541
4.27	-0.675354	143.541
4.271	-0.674438	143.541
4.272	-0.672913	143.541
4.273	-0.671082	143.541
4.274	-0.668945	143.541
4.275	-0.666809	143.541
4.276	-0.664978	143.541
4.277	-0.663147	143.541
4.278	-0.661621	143.541
4.279	-0.6604	143.541
4.28	-0.65918	143.541
4.281	-0.658569	143.541
4.282	-0.657959	143.541
4.283	-0.657959	143.541
4.284	-0.657959	143.541
4.285	-0.658264	143.541
4.286	-0.658875	143.541
4.287	-0.660095	143.541
4.288	-0.661621	143.541
4.289	-0.664063	143.541
4.29	-0.667114	143.541
4.291	-0.671082	143.541
4.292	-0.675659	143.541
4.293	-0.681152	143.541
4.294	-0.68634	143.541
4.295	-0.692139	143.541
4.296	-0.697632	143.541
4.297	-0.70343	143.541
4.298	-0.708313	143.541
4.299	-0.71228	143.541
4.3	-0.715027	143.541
4.301	-0.715942	143.541
4.302	-0.714722	143.541
4.303	-0.71106	143.541
4.304	-0.704346	143.541
4.305	-0.693359	143.541
4.306	-0.678101	143.541
4.307	-0.657654	143.541
4.308	-0.632324	143.541
4.309	-0.601196	143.541
4.31	-0.56427	143.541
4.311	-0.521545	143.541
4.312	-0.473022	143.541
4.313	-0.419006	143.541
4.314	-0.359192	143.541
4.315	-0.295105	143.541
4.316	-0.227051	143.541
4.317	-0.15686	143.541
4.318	-0.0863647	143.541
4.319	-0.017395	143.541
4.32	0.0476074	143.541
4.321	0.106506	143.541
4.322	0.157776	143.541
4.323	0.19989	143.541
4.324	0.231323	143.541
4.325	0.252075	143.541
4.326	0.26123	143.541
4.327	0.258484	143.541
4.328	0.243225	143.541
4.329	0.214539	143.541
4.33	0.17334	143.541
4.331	0.120239	143.541
4.332	0.0567627	143.541
4.333	-0.0152588	143.541
4.334	-0.0942993	143.541
4.335	-0.178223	143.541
4.336	-0.264587	143.541
4.337	-0.351868	143.541
4.338	-0.438232	143.541
4.339	-0.522156	143.541
4.34	-0.603027	143.541
4.341	-0.679321	143.541
4.342	-0.750427	143.541
4.343	-0.81604	143.541
4.344	-0.875244	143.541
4.345	-0.92804	143.541
4.346	-0.974426	143.541
4.347	-1.0144	143.541
4.348	-1.04828	143.541
4.349	-1.07635	143.541
4.35	-1.09924	143.541
4.351	-1.11694	143.541
4.352	-1.13007	143.541
4.353	-1.13831	143.541
4.354	-1.14227	143.541
4.355	-1.14197	143.541
4.356	-1.1377	143.541
4.357	-1.13007	143.541
4.358	-1.11908	143.541
4.359	-1.10565	143.541
4.36	-1.08948	143.541
4.361	-1.07147	143.541
4.362	-1.05164	143.541
4.363	-1.03058	143.541
4.364	-1.008	143.541
4.365	-0.984497	143.541
4.366	-0.960388	143.541
4.367	-0.936279	143.541
4.368	-0.911865	143.541
4.369	-0.887756	143.541
4.37	-0.864563	143.541
4.371	-0.842285	143.541
4.372	-0.821228	143.541
4.373	-0.801086	143.541
4.374	-0.78186	143.541
4.375	-0.76355	143.541
4.376	-0.746155	143.541
4.377	-0.729675	143.541
4.378	-0.714111	143.541
4.379	-0.700073	143.541
4.38	-0.687256	143.541
4.381	-0.675354	143.541
4.382	-0.664978	143.541
4.383	-0.656128	143.541
4.384	-0.648499	143.541
4.385	-0.64209	143.541
4.386	-0.636902	143.541
4.387	-0.632935	143.541
4.388	-0.630188	143.541
4.389	-0.628052	143.541
4.39	-0.627136	143.541
4.391	-0.626526	143.541
4.392	-0.626526	143.541
4.393	-0.626831	143.541
4.394	-0.626831	143.541
4.395	-0.626831	143.541
4.396	-0.626221	143.541
4.397	-0.624695	143.541
4.398	-0.622559	143.541
4.399	-0.619507	143.541
4.4	-0.615845	143.541
4.401	-0.611572	143.541
4.402	-0.606689	143.541
4.403	-0.601501	143.541
4.404	-0.596313	143.541
4.405	-0.590515	143.541
4.406	-0.585022	143.541
4.407	-0.579224	143.541
4.408	-0.57373	143.541
4.409	-0.568542	143.541
4.41	-0.56366	143.541
4.411	-0.559082	143.541
4.412	-0.555115	143.541
4.413	-0.551758	143.541
4.414	-0.549011	143.541
4.415	-0.546875	143.541
4.416	-0.545044	143.541
4.417	-0.544128	143.541
4.418	-0.543213	143.541
4.419	-0.542908	143.541
4.42	-0.541992	143.541
4.421	-0.541077	143.541
4.422	-0.539551	143.541
4.423	-0.536804	143.541
4.424	-0.533447	143.541
4.425	-0.529175	143.541
4.426	-0.524292	143.541
4.427	-0.518799	143.541
4.428	-0.513306	143.541
4.429	-0.507507	143.541
4.43	-0.501099	143.541
4.431	-0.494385	143.541
4.432	-0.487366	143.541
4.433	-0.480347	143.541
4.434	-0.472717	143.541
4.435	-0.465088	143.541
4.436	-0.457458	143.541
4.437	-0.450134	143.541
4.438	-0.44281	143.541
4.439	-0.436401	143.541
4.44	-0.430298	143.541
4.441	-0.424194	143.541
4.442	-0.418701	143.541
4.443	-0.413208	143.541
4.444	-0.407715	143.541
4.445	-0.403137	143.541
4.446	-0.398865	143.541
4.447	-0.395203	143.541
4.448	-0.391846	143.541
4.449	-0.389709	143.541
4.45	-0.387878	143.541
4.451	-0.386658	143.541
4.452	-0.386047	143.541
4.453	-0.385742	143.541
4.454	-0.386047	143.541
4.455	-0.386353	143.541
4.456	-0.386963	143.541
4.457	-0.387573	143.541
4.458	-0.388184	143.541
4.459	-0.388794	143.541
4.46	-0.389404	143.541
4.461	-0.39032	143.541
4.462	-0.39093	143.541
4.463	-0.39093	143.541
4.464	-0.39032	143.541
4.465	-0.389099	143.541
4.466	-0.386963	143.541
4.467	-0.384216	143.541
4.468	-0.381165	143.541
4.469	-0.377808	143.541
4.47	-0.374146	143.541
4.471	-0.370483	143.541
4.472	-0.366516	143.541
4.473	-0.362549	143.541
4.474	-0.358276	143.541
4.475	-0.354614	143.541
4.476	-0.350952	143.541
4.477	-0.3479	143.541
4.478	-0.345459	143.541
4.479	-0.343323	143.541
4.48	-0.341797	143.541
4.481	-0.340576	143.541
4.482	-0.339966	143.541
4.483	-0.339661	143.541
4.484	-0.339661	143.541
4.485	-0.339661	143.541
4.486	-0.339966	143.541
4.487	-0.339661	143.541
4.488	-0.339661	143.541
4.489	-0.33905	143.541
4.49	-0.338135	143.541
4.491	-0.336914	143.541
4.492	-0.335083	143.541
4.493	-0.333252	143.541
4.494	-0.331421	143.541
4.495	-0.32959	143.541
4.496	-0.327759	143.541
4.497	-0.326233	143.541
4.498	-0.324707	143.541
4.499	-0.323486	143.541
4.5	-0.322876	143.541
4.501	-0.323181	143.541
4.502	-0.324707	143.541
4.503	-0.327454	143.541
4.504	-0.331116	143.541
4.505	-0.335999	143.541
4.506	-0.341797	143.541
4.507	-0.348206	143.541
4.508	-0.354614	143.541
4.509	-0.361328	143.541
4.51	-0.367737	143.541
4.511	-0.374146	143.541
4.512	-0.380249	143.541
4.513	-0.386353	143.541
4.514	-0.391846	143.541
4.515	-0.396729	143.541
4.516	-0.400696	143.541
4.517	-0.404053	143.541
4.518	-0.406799	143.541
4.519	-0.40863	143.541
4.52	-0.409241	143.541
4.521	-0.409241	143.541
4.522	-0.408325	143.541
4.523	-0.406799	143.541
4.524	-0.405273	143.541
4.525	-0.403748	143.541
4.526	-0.402527	143.541
4.527	-0.401001	143.541
4.528	-0.399475	143.541
4.529	-0.397949	143.541
4.53	-0.396118	143.541
4.531	-0.394287	143.541
4.532	-0.392761	143.541
4.533	-0.391235	143.541
4.534	-0.390015	143.541
4.535	-0.388489	143.541
4.536	-0.387268	143.541
4.537	-0.386353	143.541
4.538	-0.385437	143.541
4.539	-0.384521	143.541
4.54	-0.383911	143.541
4.541	-0.383301	143.541
4.542	-0.382996	143.541
4.543	-0.38269	143.541
4.544	-0.382385	143.541
4.545	-0.381775	143.541
4.546	-0.380859	143.541
4.547	-0.379639	143.541
4.548	-0.378418	143.541
4.549	-0.376587	143.541
4.55	-0.374451	143.541
4.551	-0.372314	143.541
4.552	-0.369568	143.541
4.553	-0.366821	143.541
4.554	-0.364075	143.541
4.555	-0.361023	143.541
4.556	-0.357361	143.541
4.557	-0.354004	143.541
4.558	-0.350037	143.541
4.559	-0.346069	143.541
4.56	-0.342102	143.541
4.561	-0.33783	143.541
4.562	-0.333252	143.541
4.563	-0.328674	143.541
4.564	-0.324402	143.541
4.565	-0.320435	143.541
4.566	-0.316772	143.541
4.567	-0.313721	143.541
4.568	-0.310669	143.541
4.569	-0.307922	143.541
4.57	-0.305481	143.541
4.571	-0.30304	143.541
4.572	-0.300598	143.541
4.573	-0.298767	143.541
4.574	-0.297546	143.541
4.575	-0.296936	143.541
4.576	-0.296936	143.541
4.577	-0.297546	143.541
4.578	-0.298462	143.541
4.579	-0.299988	143.541
4.58	-0.301819	143.541
4.581	-0.30365	143.541
4.582	-0.305786	143.541
4.583	-0.307617	143.541
4.584	-0.309753	143.541
4.585	-0.311584	143.541
4.586	-0.313721	143.541
4.587	-0.315552	143.541
4.588	-0.317383	143.541
4.589	-0.318909	143.541
4.59	-0.32074	143.541
4.591	-0.322571	143.541
4.592	-0.325012	143.541
4.593	-0.327454	143.541
4.594	-0.330505	143.541
4.595	-0.333862	143.541
4.596	-0.337219	143.541
4.597	-0.340881	143.541
4.598	-0.344849	143.541
4.599	-0.349121	143.541
4.6	-0.353699	143.541
4.601	-0.358582	143.541
4.602	-0.363464	143.541
4.603	-0.368652	143.541
4.604	-0.37384	143.541
4.605	-0.379333	143.541
4.606	-0.385132	143.541
4.607	-0.391541	143.541
4.608	-0.397949	143.541
4.609	-0.404663	143.541
4.61	-0.411072	143.541
4.611	-0.417786	143.541
4.612	-0.424194	143.541
4.613	-0.431213	138.249
4.614	-0.437927	138.249
4.615	-0.444946	138.249
4.616	-0.452271	138.249
4.617	-0.45929	138.249
4.618	-0.465698	138.249
4.619	-0.472107	138.249
4.62	-0.477905	138.249
4.621	-0.483398	138.249
4.622	-0.488586	138.249
4.623	-0.493164	138.249
4.624	-0.497131	138.249
4.625	-0.500488	138.249
4.626	-0.503235	138.249
4.627	-0.505371	138.249
4.628	-0.506592	138.249
4.629	-0.507507	138.249
4.63	-0.508118	138.249
4.631	-0.508728	138.249
4.632	-0.509338	138.249
4.633	-0.509644	138.249
4.634	-0.510559	138.249
4.635	-0.511169	138.249
4.636	-0.51178	138.249
4.637	-0.51178	138.249
4.638	-0.511475	138.249
4.639	-0.510864	138.249
4.64	-0.510254	138.249
4.641	-0.509338	138.249
4.642	-0.508423	138.249
4.643	-0.507202	138.249
4.644	-0.506287	138.249
4.645	-0.505371	138.249
4.646	-0.50415	138.249
4.647	-0.50293	138.249
4.648	-0.502014	138.249
4.649	-0.501099	138.249
4.65	-0.500488	138.249
4.651	-0.500488	138.249
4.652	-0.500488	138.249
4.653	-0.500488	138.249
4.654	-0.500488	138.249
4.655	-0.500183	138.249
4.656	-0.500488	138.249
4.657	-0.500793	138.249
4.658	-0.501099	138.249
4.659	-0.501404	138.249
4.66	-0.501404	138.249
4.661	-0.501099	138.249
4.662	-0.500793	138.249
4.663	-0.500488	138.249
4.664	-0.500183	138.249
4.665	-0.500183	138.249
4.666	-0.500793	138.249
4.667	-0.502014	138.249
4.668	-0.503845	138.249
4.669	-0.506287	138.249
4.67	-0.509338	138.249
4.671	-0.513	138.249
4.672	-0.517273	138.249
4.673	-0.521545	138.249
4.674	-0.525818	138.249
4.675	-0.529175	138.249
4.676	-0.531616	138.249
4.677	-0.532532	138.249
4.678	-0.531616	138.249
4.679	-0.527344	138.249
4.68	-0.52002	138.249
4.681	-0.509033	138.249
4.682	-0.49408	138.249
4.683	-0.475159	138.249
4.684	-0.451355	138.249
4.685	-0.422974	138.249
4.686	-0.389099	138.249
4.687	-0.350342	138.249
4.688	-0.306396	138.249
4.689	-0.257568	138.249
4.69	-0.204163	138.249
4.691	-0.146484	138.249
4.692	-0.0860596	138.249
4.693	-0.0241089	138.249
4.694	0.0372314	138.249
4.695	0.0967407	138.249
4.696	0.152588	138.249
4.697	0.203247	138.249
4.698	0.247192	138.249
4.699	0.283203	138.249
4.7	0.310669	138.249
4.701	0.328674	138.249
4.702	0.336304	138.249
4.703	0.333862	138.249
4.704	0.320435	138.249
4.705	0.296326	138.249
4.706	0.261536	138.249
4.707	0.21637	138.249
4.708	0.162354	138.249
4.709	0.100708	138.249
4.71	0.032959	138.249
4.711	-0.0384521	138.249
4.712	-0.112	138.249
4.713	-0.185242	138.249
4.714	-0.257263	138.249
4.715	-0.326538	138.249
4.716	-0.392151	138.249
4.717	-0.453796	138.249
4.718	-0.511169	138.249
4.719	-0.56366	138.249
4.72	-0.611572	138.249
4.721	-0.654602	138.249
4.722	-0.692749	138.249
4.723	-0.726318	138.249
4.724	-0.755615	138.249
4.725	-0.78064	138.249
4.726	-0.801697	138.249
4.727	-0.819702	138.249
4.728	-0.834656	138.249
4.729	-0.847168	138.249
4.73	-0.857239	138.249
4.731	-0.864868	138.249
4.732	-0.870056	138.249
4.733	-0.872803	138.249
4.734	-0.872803	138.249
4.735	-0.870361	138.249
4.736	-0.864868	138.249
4.737	-0.856934	138.249
4.738	-0.845947	138.249
4.739	-0.83252	138.249
4.74	-0.81665	138.249
4.741	-0.79895	138.249
4.742	-0.780029	138.249
4.743	-0.759888	138.249
4.744	-0.739136	138.249
4.745	-0.718079	138.249
4.746	-0.696106	138.249
4.747	-0.674133	138.249
4.748	-0.652161	138.249
4.749	-0.631104	138.249
4.75	-0.610352	138.249
4.751	-0.59082	138.249
4.752	-0.572205	138.249
4.753	-0.554504	138.249
4.754	-0.537415	138.249
4.755	-0.521851	138.249
4.756	-0.506897	138.249
4.757	-0.493469	138.249
4.758	-0.480957	138.249
4.759	-0.46936	138.249
4.76	-0.458679	138.249
4.761	-0.448914	138.249
4.762	-0.440674	138.249
4.763	-0.433655	138.249
4.764	-0.428162	138.249
4.765	-0.423584	138.249
4.766	-0.420227	138.249
4.767	-0.41748	138.249
4.768	-0.415649	138.249
4.769	-0.414124	138.249
4.77	-0.412903	138.249
4.771	-0.411682	138.249
4.772	-0.410767	138.249
4.773	-0.409546	138.249
4.774	-0.408325	138.249
4.775	-0.406494	138.249
4.776	-0.404358	138.249
4.777	-0.401611	138.249
4.778	-0.398865	138.249
4.779	-0.395508	138.249
4.78	-0.391541	138.249
4.781	-0.387573	138.249
4.782	-0.383301	138.249
4.783	-0.378723	138.249
4.784	-0.373535	138.249
4.785	-0.368347	138.249
4.786	-0.363159	138.249
4.787	-0.357971	138.249
4.788	-0.353088	138.249
4.789	-0.348816	138.249
4.79	-0.345154	138.249
4.791	-0.342102	138.249
4.792	-0.339966	138.249
4.793	-0.338135	138.249
4.794	-0.336609	138.249
4.795	-0.335693	138.249
4.796	-0.335083	138.249
4.797	-0.334778	138.249
4.798	-0.333862	138.249
4.799	-0.332642	138.249
4.8	-0.330811	138.249
4.801	-0.328674	138.249
4.802	-0.325623	138.249
4.803	-0.322266	138.249
4.804	-0.318298	138.249
4.805	-0.313416	138.249
4.806	-0.307617	138.249
4.807	-0.301208	138.249
4.808	-0.293884	138.249
4.809	-0.286865	138.249
4.81	-0.279846	138.249
4.811	-0.273132	138.249
4.812	-0.267029	138.249
4.813	-0.260925	138.249
4.814	-0.255432	138.249
4.815	-0.250244	138.249
4.816	-0.245361	138.249
4.817	-0.241394	138.249
4.818	-0.238342	138.249
4.819	-0.235596	138.249
4.82	-0.233765	138.249
4.821	-0.232239	138.249
4.822	-0.230408	138.249
4.823	-0.228577	138.249
4.824	-0.22644	138.249
4.825	-0.223694	138.249
4.826	-0.220032	138.249
4.827	-0.21637	138.249
4.828	-0.213013	138.249
4.829	-0.209656	138.249
4.83	-0.206604	138.249
4.831	-0.204163	138.249
4.832	-0.201721	138.249
4.833	-0.199585	138.249
4.834	-0.197754	138.249
4.835	-0.196533	138.249
4.836	-0.195618	138.249
4.837	-0.195007	138.249
4.838	-0.194702	138.249
4.839	-0.194702	138.249
4.84	-0.195313	138.249
4.841	-0.195923	138.249
4.842	-0.197144	138.249
4.843	-0.198669	138.249
4.844	-0.19989	138.249
4.845	-0.200806	138.249
4.846	-0.201416	138.249
4.847	-0.201416	138.249
4.848	-0.2005	138.249
4.849	-0.198669	138.249
4.85	-0.196533	138.249
4.851	-0.193787	138.249
4.852	-0.19043	138.249
4.853	-0.186768	138.249
4.854	-0.1828	138.249
4.855	-0.179138	138.249
4.856	-0.175476	138.249
4.857	-0.172119	138.249
4.858	-0.168762	138.249
4.859	-0.165405	138.249
4.86	-0.162354	138.249
4.861	-0.159607	138.249
4.862	-0.156555	138.249
4.863	-0.153503	138.249
4.864	-0.150452	138.249
4.865	-0.147095	138.249
4.866	-0.143738	138.249
4.867	-0.140686	138.249
4.868	-0.137939	138.249
4.869	-0.135803	138.249
4.87	-0.133972	138.249
4.871	-0.133057	138.249
4.872	-0.132751	138.249
4.873	-0.132751	138.249
4.874	-0.133667	138.249
4.875	-0.134583	138.249
4.876	-0.135803	138.249
4.877	-0.137024	138.249
4.878	-0.138245	138.249
4.879	-0.140076	138.249
4.88	-0.142212	138.249
4.881	-0.144653	138.249
4.882	-0.1474	138.249
4.883	-0.150452	138.249
4.884	-0.153198	138.249
4.885	-0.15625	138.249
4.886	-0.158997	138.249
4.887	-0.161438	138.249
4.888	-0.162659	138.249
4.889	-0.163269	138.249
4.89	-0.163269	138.249
4.891	-0.162659	138.249
4.892	-0.161743	138.249
4.893	-0.160522	138.249
4.894	-0.159302	138.249
4.895	-0.157776	138.249
4.896	-0.15625	138.249
4.897	-0.154724	138.249
4.898	-0.153198	138.249
4.899	-0.151672	138.249
4.9	-0.150146	138.249
4.901	-0.148315	138.249
4.902	-0.14679	138.249
4.903	-0.145264	138.249
4.904	-0.144043	138.249
4.905	-0.143433	138.249
4.906	-0.143127	138.249
4.907	-0.143127	138.249
4.908	-0.143433	138.249
4.909	-0.143433	138.249
4.91	-0.143433	138.249
4.911	-0.142822	138.249
4.912	-0.141296	138.249
4.913	-0.139465	138.249
4.914	-0.137329	138.249
4.915	-0.135193	138.249
4.916	-0.133057	138.249
4.917	-0.131226	138.249
4.918	-0.129089	138.249
4.919	-0.126953	138.249
4.92	-0.124817	138.249
4.921	-0.122681	138.249
4.922	-0.12085	138.249
4.923	-0.118408	138.249
4.924	-0.116272	138.249
4.925	-0.113525	138.249
4.926	-0.111084	138.249
4.927	-0.108337	138.249
4.928	-0.105591	138.249
4.929	-0.103149	138.249
4.93	-0.101013	138.249
4.931	-0.0985718	138.249
4.932	-0.0961304	138.249
4.933	-0.0933838	138.249
4.934	-0.0900269	138.249
4.935	-0.0860596	138.249
4.936	-0.0817871	138.249
4.937	-0.0769043	138.249
4.938	-0.0717163	138.249
4.939	-0.0665283	138.249
4.94	-0.0610352	138.249
4.941	-0.055542	138.249
4.942	-0.050354	138.249
4.943	-0.045166	138.249
4.944	-0.0402832	138.249
4.945	-0.0360107	138.249
4.946	-0.0323486	138.249
4.947	-0.0292969	138.249
4.948	-0.0274658	138.249
4.949	-0.0268555	138.249
4.95	-0.0268555	138.249
4.951	-0.027771	138.249
4.952	-0.0292969	138.249
4.953	-0.0320435	138.249
4.954	-0.0350952	138.249
4.955	-0.0387573	138.249
4.956	-0.0430298	138.249
4.957	-0.0476074	138.249
4.958	-0.0531006	138.249
4.959	-0.0582886	138.249
4.96	-0.0631714	138.249
4.961	-0.067749	138.249
4.962	-0.0717163	138.249
4.963	-0.0747681	138.249
4.964	-0.0772095	138.249
4.965	-0.0784302	138.249
4.966	-0.0790405	138.249
4.967	-0.0790405	138.249
4.968	-0.0787354	138.249
4.969	-0.078125	138.249
4.97	-0.0769043	138.249
4.971	-0.0756836	138.249
4.972	-0.0750732	138.249
4.973	-0.0744629	138.249
4.974	-0.0750732	138.249
4.975	-0.0765991	138.249
4.976	-0.0790405	138.249
4.977	-0.0823975	138.249
4.978	-0.0863647	138.249
4.979	-0.0912476	138.249
4.98	-0.0973511	138.249
4.981	-0.10437	138.249
4.982	-0.112305	138.249
4.983	-0.12085	138.249
4.984	-0.13031	138.249
4.985	-0.140076	138.249
4.986	-0.150146	138.249
4.987	-0.159912	138.249
4.988	-0.169678	138.249
4.989	-0.178833	138.249
4.99	-0.187683	138.249
4.991	-0.195618	138.249
4.992	-0.202942	138.249
4.993	-0.209351	138.249
4.994	-0.215454	138.249
4.995	-0.221558	138.249
4.996	-0.226746	138.249
4.997	-0.230713	138.249
4.998	-0.23407	138.249
4.999	-0.236511	138.249
5	-0.238342	138.249
5.001	-0.239563	138.249
5.002	-0.240173	138.249
5.003	-0.240173	138.249
5.004	-0.239563	138.249
5.005	-0.238037	138.249
5.006	-0.236511	138.249
5.007	-0.23468	138.249
5.008	-0.232849	138.249
5.009	-0.231018	138.249
5.01	-0.228882	138.249
5.011	-0.227356	138.249
5.012	-0.226135	138.249
5.013	-0.22583	138.249
5.014	-0.227051	138.249
5.015	-0.229187	138.249
5.016	-0.232544	138.249
5.017	-0.236511	138.249
5.018	-0.240784	138.249
5.019	-0.245361	138.249
5.02	-0.250244	138.249
5.021	-0.255127	138.249
5.022	-0.26001	138.249
5.023	-0.264282	138.249
5.024	-0.267639	138.249
5.025	-0.270691	138.249
5.026	-0.272522	138.249
5.027	-0.274048	138.249
5.028	-0.274353	138.249
5.029	-0.274048	138.249
5.03	-0.272827	138.249
5.031	-0.270691	138.249
5.032	-0.267334	138.249
5.033	-0.263062	138.249
5.034	-0.258179	138.249
5.035	-0.252686	138.249
5.036	-0.246887	138.249
5.037	-0.241089	138.249
5.038	-0.235291	138.249
5.039	-0.229797	138.249
5.04	-0.224915	138.249
5.041	-0.220642	138.249
5.042	-0.21759	138.249
5.043	-0.215759	138.249
5.044	-0.215454	138.249
5.045	-0.21637	138.249
5.046	-0.218506	138.249
5.047	-0.222168	138.249
5.048	-0.22583	138.249
5.049	-0.229797	138.249
5.05	-0.233765	138.249
5.051	-0.236816	138.249
5.052	-0.238953	138.249
5.053	-0.240173	138.249
5.054	-0.239868	138.249
5.055	-0.237427	138.249
5.056	-0.232544	138.249
5.057	-0.224609	138.249
5.058	-0.213013	138.249
5.059	-0.196533	138.249
5.06	-0.175171	138.249
5.061	-0.148621	138.249
5.062	-0.116577	138.249
5.063	-0.0796509	138.249
5.064	-0.0372314	138.249
5.065	0.0106812	138.249
5.066	0.0634766	138.249
5.067	0.120544	138.249
5.068	0.180054	138.249
5.069	0.241089	138.249
5.07	0.301208	138.249
5.071	0.359802	138.249
5.072	0.414734	138.249
5.073	0.464478	138.249
5.074	0.508118	138.249
5.075	0.543823	138.249
5.076	0.570679	138.249
5.077	0.588379	138.249
5.078	0.595703	138.249
