¬í	EMG	EMG ¿n¤À
0	0.0012207	0
0.002	-0.0262451	1.2207E-005
0.004	0.020752	0.000274658
0.006	0.00427246	0.000482178
0.008	-0.00305176	0.000524902
0.01	-0.00427246	0.00055542
0.012	0.0115967	0.000598145
0.014	0.00305176	0.000714111
0.016	0.00610352	0.000744629
0.018	0.0115967	0.000805664
0.02	0.00549316	0.000921631
0.022	0.00732422	0.000976563
0.024	0.00793457	0.0010498
0.026	0.000610352	0.00112915
0.028	-0.00854492	0.00113525
0.03	0.00244141	0.0012207
0.032	0.0140381	0.00124512
0.034	0.00854492	0.0013855
0.036	-0.00549316	0.00147095
0.038	0.0115967	0.00152588
0.04	0.00732422	0.00164185
0.042	0.0134277	0.00171509
0.044	-0.00183105	0.00184937
0.046	0.00854492	0.00186768
0.048	-0.00854492	0.00195313
0.05	-0.00427246	0.00203857
0.052	0.00305176	0.0020813
0.054	-0.020752	0.00211182
0.056	-0.0012207	0.00231934
0.058	0.0286865	0.00233154
0.06	-0.0170898	0.00261841
0.062	0.00793457	0.00278931
0.064	-0.00427246	0.00286865
0.066	0.012207	0.00291138
0.068	0.00915527	0.00303345
0.07	-0.00976563	0.003125
0.072	-0.00366211	0.00322266
0.074	-0.00915527	0.00325928
0.076	-0.000610352	0.00335083
0.078	0.00183105	0.00335693
0.08	0.0238037	0.00337524
0.082	0	0.00361328
0.084	-0.00366211	0.00361328
0.086	0.0140381	0.0036499
0.088	-0.00488281	0.00379028
0.09	0.0164795	0.00383911
0.092	0.00610352	0.00400391
0.094	-0.0115967	0.00406494
0.096	-0.00549316	0.00418091
0.098	0.0128174	0.00423584
0.1	0.0128174	0.00436401
0.102	0.0134277	0.00449219
0.104	-0.0134277	0.00462646
0.106	0.0140381	0.00476074
0.108	0.00427246	0.00490112
0.11	0.00793457	0.00494385
0.112	0.0115967	0.00502319
0.114	-0.010376	0.00513916
0.116	-0.0128174	0.00524292
0.118	0.020752	0.00537109
0.12	0.0158691	0.00557861
0.122	-0.012207	0.0057373
0.124	-0.00183105	0.00585938
0.126	0.00366211	0.00587769
0.128	0.0134277	0.00591431
0.13	-0.00732422	0.00604858
0.132	-0.00488281	0.00612183
0.134	-0.010376	0.00617065
0.136	0.0146484	0.00627441
0.138	0	0.0064209
0.14	0.0213623	0.0064209
0.142	0.00427246	0.00663452
0.144	0.0128174	0.00667725
0.146	-0.00549316	0.00680542
0.148	-0.0115967	0.00686035
0.15	0.0128174	0.00697632
0.152	0.00427246	0.00710449
0.154	-0.010376	0.00714722
0.156	-0.0219727	0.00725098
0.158	0.00427246	0.0074707
0.16	-0.00671387	0.00751343
0.162	0.00366211	0.00758057
0.164	-0.0219727	0.00761719
0.166	0.0335693	0.00783691
0.168	-0.00305176	0.00817261
0.17	-0.0128174	0.00820313
0.172	0.000610352	0.0083313
0.174	-0.0012207	0.0083374
0.176	0.0366211	0.00834961
0.178	-0.0335693	0.00871582
0.18	-0.00732422	0.00905151
0.182	0.0140381	0.00912476
0.184	-0.000610352	0.00926514
0.186	-0.012207	0.00927124
0.188	0	0.00939331
0.19	-0.00915527	0.00939331
0.192	-0.00854492	0.00948486
0.194	0.0012207	0.00957031
0.196	0.00854492	0.00958252
0.198	0.012207	0.00966797
0.2	0.000610352	0.00978394
0.202	-0.00854492	0.00960693
0.204	0.0012207	0.00941162
0.206	-0.00244141	0.00939331
0.208	-0.0012207	0.009375
0.21	0.0189209	0.00952148
0.212	-0.0140381	0.0095459
0.214	0	0.00951538
0.216	0.00366211	0.00949097
0.218	0.00427246	0.00941772
0.22	0.010376	0.00946655
0.222	0.012207	0.00951538
0.224	0.0109863	0.0095459
0.226	-0.00183105	0.00955811
0.228	-0.000610352	0.00947876
0.23	-0.00854492	0.00953979
0.232	0.00427246	0.00944214
0.234	0.00305176	0.00938721
0.236	-0.0213623	0.0095459
0.238	-0.00427246	0.00947266
0.24	-0.00610352	0.00946045
0.242	0	0.00932617
0.244	-0.0158691	0.00946655
0.246	0.0219727	0.00960083
0.248	-0.000610352	0.00952148
0.25	-0.0292969	0.00977173
0.252	0.0280762	0.010022
0.254	-0.000610352	0.00982056
0.256	-0.010376	0.00991211
0.258	0.00244141	0.00964966
0.26	0.00488281	0.00952759
0.262	0.00305176	0.00947876
0.264	-0.000610352	0.00944214
0.266	-0.00793457	0.00939941
0.268	0.00671387	0.009375
0.27	-0.0012207	0.00928955
0.272	0.00366211	0.00928955
0.274	0.0140381	0.00933838
0.276	-0.00793457	0.00941162
0.278	-0.012207	0.00951538
0.28	0.0012207	0.00928955
0.282	0.00488281	0.00933838
0.284	0.0164795	0.00946655
0.286	-0.0146484	0.00947266
0.288	0.00183105	0.00944214
0.29	0.0012207	0.00928955
0.292	0.00244141	0.00925293
0.294	0.00244141	0.00916138
0.296	0.0012207	0.00911865
0.298	0.00671387	0.00905762
0.3	0.00610352	0.00899048
0.302	0.0134277	0.00899048
0.304	0.00183105	0.00887451
0.306	0.000610352	0.00874023
0.308	0.00915527	0.00878906
0.31	0.0183105	0.00889282
0.312	-0.00549316	0.00883179
0.314	-0.00732422	0.00880127
0.316	0.00427246	0.00871582
0.318	-0.00976563	0.00860596
0.32	-0.010376	0.00855103
0.322	0.00305176	0.00845947
0.324	0.00244141	0.00846558
0.326	0.00610352	0.00848999
0.328	0.00732422	0.00842896
0.33	-0.00671387	0.00842285
0.332	-0.0012207	0.00838623
0.334	0.0195313	0.00847778
0.336	0.00976563	0.00842896
0.338	-0.00244141	0.00845337
0.34	0.0109863	0.00834961
0.342	-0.0195313	0.0085022
0.344	0.0256348	0.00863037
0.346	-0.00488281	0.00862427
0.348	-0.00244141	0.00853271
0.35	0.010376	0.0085083
0.352	0.00305176	0.00849609
0.354	-0.0189209	0.00858154
0.356	0.012207	0.00848389
0.358	0.00671387	0.0085083
0.36	-0.0109863	0.00855103
0.362	-0.00488281	0.00856323
0.364	0.020752	0.00855103
0.366	-0.0012207	0.00822754
0.368	0.00732422	0.00827026
0.37	0.00854492	0.00822754
0.372	-0.00305176	0.00825195
0.374	0.0195313	0.00843506
0.376	0.00549316	0.00812378
0.378	-0.022583	0.00801392
0.38	0.00671387	0.00800781
0.382	-0.00976563	0.00796509
0.384	0.00610352	0.00802002
0.386	0.00183105	0.00791626
0.388	-0.00244141	0.00794067
0.39	-0.012207	0.00797119
0.392	0.0012207	0.00789795
0.394	0.00488281	0.00793457
0.396	-0.00244141	0.00787354
0.398	0.00183105	0.00776978
0.4	0.00366211	0.00780029
0.402	-0.00183105	0.00773315
0.404	0.0012207	0.00773315
0.406	0.00549316	0.00776367
0.408	0.00854492	0.00783691
0.41	-0.00244141	0.00767212
0.412	0.0219727	0.00775146
0.414	-0.00793457	0.00783081
0.416	0.00488281	0.00784302
0.418	0.00915527	0.00789185
0.42	0.00366211	0.00782471
0.422	-0.00305176	0.00773315
0.424	0.00671387	0.00769043
0.426	0.00793457	0.00775146
0.428	-0.0128174	0.00787354
0.43	0.0012207	0.00780029
0.432	-0.00366211	0.00779419
0.434	0.0134277	0.00789795
0.436	0.0195313	0.00787964
0.438	-0.0323486	0.0081604
0.44	-0.00671387	0.0081665
0.442	0.00244141	0.00819092
0.444	0.0152588	0.00818481
0.446	0.020752	0.00817261
0.448	-0.00305176	0.00819702
0.45	-0.0213623	0.00811768
0.452	0.00488281	0.00788574
0.454	0.0213623	0.00809326
0.456	0.00793457	0.00806885
0.458	-0.0164795	0.00820923
0.46	0.00915527	0.00825195
0.462	0.000610352	0.00822754
0.464	-0.000610352	0.00822754
0.466	-0.00427246	0.00819092
0.468	0.0164795	0.00828857
0.47	0.00671387	0.00834351
0.472	-0.0134277	0.00844116
0.474	-0.00793457	0.00838013
0.476	0.0115967	0.00841675
0.478	0.0195313	0.00848999
0.48	-0.0183105	0.00866089
0.482	0.00610352	0.0086731
0.484	0.0177002	0.0086853
0.486	0.00854492	0.00862427
0.488	-0.00488281	0.00865479
0.49	0.00427246	0.0086853
0.492	0.00305176	0.00869141
0.494	-0.00183105	0.0086853
0.496	0.000610352	0.0086792
0.498	0.000610352	0.00861816
0.5	0.00488281	0.00860596
0.502	-0.00549316	0.00852661
0.504	-0.0201416	0.00870972
0.506	0.00610352	0.00876465
0.508	0.0189209	0.0088623
0.51	-0.0183105	0.0088623
0.512	-0.00610352	0.00886841
0.514	-0.00976563	0.00889282
0.516	0.0115967	0.00896606
0.518	-0.0134277	0.00900269
0.52	-0.0189209	0.00908813
0.522	0.0231934	0.00928955
0.524	-0.0012207	0.00927734
0.526	-0.0158691	0.009375
0.528	0.00793457	0.0093811
0.53	-0.00671387	0.0093811
0.532	0.00671387	0.00943604
0.534	-0.00183105	0.00925903
0.536	-0.00366211	0.009198
0.538	0.00671387	0.00924072
0.54	0.00244141	0.00915527
0.542	-0.0158691	0.00911865
0.544	0.010376	0.00896606
0.546	0.00427246	0.00895996
0.548	0.0238037	0.00917358
0.55	-0.00732422	0.00914307
0.552	0	0.00911255
0.554	0.012207	0.00904541
0.556	0.0115967	0.00903931
0.558	-0.00549316	0.0090271
0.56	0.00915527	0.00900879
0.562	0.010376	0.00906372
0.564	-0.022583	0.00908203
0.566	-0.00549316	0.00912476
0.568	0.00427246	0.00909424
0.57	-0.00366211	0.00904541
0.572	-0.0231934	0.00924683
0.574	0.0012207	0.00906372
0.576	0.00732422	0.00908203
0.578	-0.00427246	0.00889893
0.58	-0.00488281	0.00888062
0.582	0.00427246	0.00882568
0.584	-0.00366211	0.00880127
0.586	0.0146484	0.00892944
0.588	0.00183105	0.00892334
0.59	-0.00793457	0.00888062
0.592	0.022583	0.00909424
0.594	-0.012207	0.00916748
0.596	0.000610352	0.00914917
0.598	0	0.00913086
0.6	-0.00610352	0.00915527
0.602	0.00183105	0.00915527
0.604	-0.0274658	0.00941772
0.606	0.0134277	0.00949707
0.608	0.00976563	0.00950928
0.61	-0.00976563	0.00958252
0.612	-0.0115967	0.00947876
0.614	0.00610352	0.00946045
0.616	0.0134277	0.0095459
0.618	-0.00854492	0.00953979
0.62	0.010376	0.00960693
0.622	-0.0170898	0.00974731
0.624	0.00427246	0.0097229
0.626	0.0115967	0.00975952
0.628	0.010376	0.00973511
0.63	-0.00427246	0.00976563
0.632	-0.00671387	0.00979614
0.634	0.012207	0.00978394
0.636	0.0128174	0.0097168
0.638	-0.0158691	0.009552
0.64	-0.00488281	0.00953369
0.642	0.0109863	0.00961914
0.644	-0.010376	0.00957031
0.646	-0.0219727	0.00958252
0.648	0.0134277	0.00968628
0.65	-0.0109863	0.00958252
0.652	0.00488281	0.00958252
0.654	-0.00244141	0.00939331
0.656	-0.00854492	0.00939941
0.658	-0.010376	0.00933838
0.66	0.0012207	0.00925903
0.662	0	0.00925293
0.664	-0.00610352	0.00930786
0.666	0.0158691	0.00942383
0.668	-0.00854492	0.00934448
0.67	-0.00671387	0.00934448
0.672	0.012207	0.00933228
0.674	0.0158691	0.00941162
0.676	-0.00488281	0.00934448
0.678	0.012207	0.00927124
0.68	0.0146484	0.00923462
0.682	0.000610352	0.00917969
0.684	0.00183105	0.009021
0.686	0.00427246	0.00897827
0.688	0.0189209	0.00911865
0.69	0	0.00907593
0.692	0.00610352	0.00910645
0.694	0.00305176	0.00911865
0.696	-0.00488281	0.00916138
0.698	-0.00549316	0.00921021
0.7	-0.00305176	0.00919189
0.702	-0.0109863	0.00924683
0.704	0.0177002	0.00922241
0.706	-0.00366211	0.009198
0.708	-0.0128174	0.00913696
0.71	-0.0012207	0.00896606
0.712	0.0189209	0.00909424
0.714	-0.00610352	0.00905762
0.716	0.00549316	0.00899658
0.718	0.0262451	0.00912476
0.72	-0.0183105	0.00911865
0.722	-0.0115967	0.00900269
0.724	0.0238037	0.00922852
0.726	-0.00854492	0.00915527
0.728	-0.00488281	0.00912476
0.73	0.0012207	0.00906982
0.732	0.00793457	0.00908203
0.734	-0.000610352	0.00906982
0.736	-0.00976563	0.00913086
0.738	0.00915527	0.00915527
0.74	0.00732422	0.0092041
0.742	0	0.00904541
0.744	0.000610352	0.00894775
0.746	0.00427246	0.00894775
0.748	0.00915527	0.00880127
0.75	0.0128174	0.0088562
0.752	0.00366211	0.00889282
0.754	-0.00244141	0.00879517
0.756	0.0177002	0.0088562
0.758	0.0109863	0.00891113
0.76	-0.0213623	0.0090332
0.762	0.0170898	0.00910034
0.764	0.0012207	0.00888672
0.766	-0.00732422	0.00890503
0.768	0.00549316	0.00891724
0.77	-0.00427246	0.00892334
0.772	0	0.00869141
0.774	0.00610352	0.00874023
0.776	0.0256348	0.00892334
0.778	0.000610352	0.00888672
0.78	-0.0012207	0.0088501
0.782	0.00854492	0.00889282
0.784	0.000610352	0.0088623
0.786	0.0128174	0.00884399
0.788	-0.0152588	0.00897827
0.79	-0.0195313	0.00909424
0.792	0.00610352	0.00892944
0.794	-0.0146484	0.00895386
0.796	-0.0115967	0.00906372
0.798	-0.00244141	0.00908813
0.8	-0.00244141	0.00905151
0.802	0.00610352	0.00909424
0.804	0.00610352	0.00888062
0.806	-0.00549316	0.00880127
0.808	0.0152588	0.0088562
0.81	0.00244141	0.00878296
0.812	-0.00549316	0.00872192
0.814	0.0115967	0.00877686
0.816	0.00732422	0.00871582
0.818	0.0170898	0.00880127
0.82	-0.0219727	0.00891724
0.822	-0.00610352	0.00880737
0.824	0.00305176	0.00879517
0.826	-0.00305176	0.00870972
0.828	0.00305176	0.00863647
0.83	0.0299072	0.00889282
0.832	-0.032959	0.00915527
0.834	0.000610352	0.00903931
0.836	0.00671387	0.00897827
0.838	0.0152588	0.00897217
0.84	0.00427246	0.00896606
0.842	0.00671387	0.00892334
0.844	-0.0152588	0.00897217
0.846	0.0128174	0.00888062
0.848	-0.0115967	0.0088623
0.85	0.00244141	0.00877686
0.852	0.0152588	0.00888062
0.854	-0.00976563	0.00895386
0.856	-0.0128174	0.00899658
0.858	0.00610352	0.00895386
0.86	-0.00610352	0.00900269
0.862	0	0.00900269
0.864	-0.00244141	0.00896606
0.866	-0.0183105	0.00899048
0.868	-0.00366211	0.00894165
0.87	0.0213623	0.00908813
0.872	-0.00183105	0.00898438
0.874	-0.00305176	0.0088562
0.876	0.00183105	0.00882568
0.878	0.00793457	0.00878296
0.88	-0.00183105	0.00865479
0.882	0.00244141	0.0086731
0.884	0.010376	0.00875854
0.886	-0.0158691	0.00887451
0.888	0.000610352	0.00869141
0.89	-0.00976563	0.00878906
0.892	0.00244141	0.00875244
0.894	0.00183105	0.00874023
0.896	-0.00366211	0.00872803
0.898	0.00244141	0.00869751
0.9	-0.0134277	0.00880127
0.902	0.012207	0.00881348
0.904	0.0134277	0.00877075
0.906	-0.00915527	0.00882568
0.908	-0.00183105	0.00871582
0.91	0.0170898	0.00887451
0.912	-0.010376	0.00878906
0.914	0.0183105	0.00891113
0.916	-0.00488281	0.00890503
0.918	-0.0152588	0.00879517
0.92	0.00488281	0.00866089
0.922	0.00793457	0.00862427
0.924	-0.00427246	0.00842896
0.926	0.00549316	0.00839844
0.928	-0.00793457	0.00842896
0.93	0.00915527	0.0085083
0.932	-0.0012207	0.00844116
0.934	-0.00183105	0.00845337
0.936	0.00244141	0.00838013
0.938	0.00549316	0.00834351
0.94	0	0.00827026
0.942	0.00610352	0.0083313
0.944	-0.00976563	0.00842285
0.946	0.00915527	0.00847168
0.948	-0.0170898	0.00855103
0.95	-0.00488281	0.00847168
0.952	0.012207	0.00855713
0.954	-0.00366211	0.00856934
0.956	-0.00427246	0.00843506
0.958	-0.00610352	0.00838623
0.96	0.00976563	0.00827026
0.962	-0.00305176	0.00812988
0.964	0.00427246	0.0081604
0.966	0.00915527	0.00817871
0.968	0.0128174	0.00825195
0.97	-0.0158691	0.00836792
0.972	0.00671387	0.00843506
0.974	-0.00305176	0.00840454
0.976	0.0262451	0.00841064
0.978	-0.0109863	0.0085144
0.98	-0.0158691	0.00866089
0.982	-0.0012207	0.00858765
0.984	0.010376	0.0086853
0.986	0.000610352	0.00856323
0.988	-0.0128174	0.00853882
0.99	0.000610352	0.00834961
0.992	0.0213623	0.0085022
0.994	-0.00854492	0.00844116
0.996	-0.0128174	0.00845337
0.998	0.00305176	0.00845947
1	0.0170898	0.00860596
1.002	-0.00671387	0.00861206
1.004	-0.00610352	0.00861206
1.006	0.00488281	0.00860596
1.008	0.00244141	0.00847778
1.01	0.00183105	0.00847168
1.012	0.00183105	0.00843506
1.014	0.0012207	0.0083313
1.016	0.00732422	0.0083313
1.018	0.00793457	0.00823975
1.02	-0.00732422	0.00809326
1.022	0.00305176	0.00806274
1.024	0.00305176	0.00806274
1.026	0.00183105	0.00805054
1.028	0.0134277	0.0081543
1.03	0.00854492	0.00794067
1.032	0.00366211	0.00764771
1.034	0.0152588	0.00779419
1.036	0	0.00772705
1.038	0.0219727	0.00779419
1.04	0.0012207	0.00776367
1.042	-0.010376	0.00780029
1.044	-0.0189209	0.00783691
1.046	0.0183105	0.00789185
1.048	-0.000610352	0.00778198
1.05	-0.0152588	0.00791016
1.052	-0.00671387	0.00782471
1.054	0.0012207	0.00773926
1.056	0.012207	0.00773315
1.058	0.0164795	0.00783691
1.06	-0.0292969	0.00806885
1.062	0.0250244	0.00831909
1.064	0.00854492	0.00838013
1.066	0.000610352	0.00820313
1.068	-0.00427246	0.00820923
1.07	0.00244141	0.00802002
1.072	-0.00244141	0.00802612
1.074	-0.00244141	0.00802002
1.076	-0.0128174	0.00812988
1.078	-0.00671387	0.00811768
1.08	0.00610352	0.0081604
1.082	0.00671387	0.00820313
1.084	-0.00549316	0.0081543
1.086	-0.00427246	0.00803833
1.088	-0.00671387	0.00809937
1.09	0.00915527	0.00809326
1.092	0.00488281	0.00811768
1.094	0.00610352	0.0081604
1.096	0.00244141	0.00814819
1.098	-0.0152588	0.00827637
1.1	-0.00183105	0.0081604
1.102	0.00427246	0.00808105
1.104	0.0134277	0.00808105
1.106	-0.00305176	0.00802002
1.108	0.00854492	0.00808716
1.11	0.012207	0.00803833
1.112	-0.012207	0.00805664
1.114	-0.00671387	0.00794067
1.116	0.00366211	0.00792847
1.118	0.00854492	0.00786133
1.12	-0.0115967	0.00792847
1.122	-0.00610352	0.00791016
1.124	0.00793457	0.00794678
1.126	0.0177002	0.00806885
1.128	-0.0152588	0.00814209
1.13	0.00915527	0.00814209
1.132	0.00427246	0.00817261
1.134	-0.000610352	0.0081604
1.136	-0.010376	0.00823975
1.138	-0.000610352	0.00819092
1.14	-0.0158691	0.00834961
1.142	0.00549316	0.00834351
1.144	-0.0268555	0.0085144
1.146	0.0164795	0.00858765
1.148	0.00183105	0.00843506
1.15	-0.00732422	0.00845947
1.152	0.00488281	0.00838623
1.154	-0.00854492	0.00843506
1.156	-0.0128174	0.00852051
1.158	0.0164795	0.00862427
1.16	0.00183105	0.00854492
1.162	-0.00793457	0.00859375
1.164	0.00793457	0.00863037
1.166	-0.010376	0.00864258
1.168	0.0152588	0.00866699
1.17	0.010376	0.00861206
1.172	0.00549316	0.00859985
1.174	-0.0115967	0.0086853
1.176	-0.0158691	0.00858154
1.178	0.00732422	0.00854492
1.18	0.00671387	0.00845337
1.182	-0.000610352	0.00844727
1.184	-0.0292969	0.00863647
1.186	0.00854492	0.00871582
1.188	0.00549316	0.00864258
1.19	0.00854492	0.00872192
1.192	-0.0231934	0.00874023
1.194	0.00854492	0.00874023
1.196	0.00183105	0.00863037
1.198	-0.020752	0.00880737
1.2	0.00915527	0.00872803
1.202	0.0115967	0.00877686
1.204	-0.0244141	0.00895996
1.206	-0.0189209	0.00910034
1.208	0.0109863	0.00918579
1.21	0.0201416	0.0093689
1.212	-0.0189209	0.00953979
1.214	0.00915527	0.00961914
1.216	-0.00183105	0.00956421
1.218	-0.0012207	0.00949707
1.22	-0.00610352	0.00948486
1.222	-0.00915527	0.0095459
1.224	0.0201416	0.0097168
1.226	0.00671387	0.00976563
1.228	-0.000610352	0.00963745
1.23	-0.0140381	0.00969238
1.232	0.0140381	0.00979614
1.234	0.0262451	0.00990601
1.236	0.00488281	0.00995483
1.238	-0.00244141	0.00975952
1.24	0.00488281	0.00979614
1.242	0.0128174	0.00982056
1.244	-0.012207	0.00975342
1.246	0.00915527	0.00966187
1.248	-0.00976563	0.00975342
1.25	-0.00427246	0.00964355
1.252	0.000610352	0.00958252
1.254	0.0140381	0.00971069
1.256	-0.012207	0.00971069
1.258	-0.00610352	0.00960693
1.26	0.0152588	0.00946655
1.262	-0.00549316	0.00927124
1.264	-0.00305176	0.00921631
1.266	0.0109863	0.00932007
1.268	-0.00244141	0.00930176
1.27	0.0164795	0.00944214
1.272	-0.0115967	0.00953369
1.274	-0.00793457	0.00958862
1.276	0.0012207	0.00947266
1.278	0.0195313	0.00960083
1.28	-0.0170898	0.00971069
1.282	0.00427246	0.00968628
1.284	0.0115967	0.00974731
1.286	-0.00671387	0.00977173
1.288	0.00976563	0.00980225
1.29	0.00244141	0.00973511
1.292	-0.000610352	0.00969238
1.294	0.00549316	0.00968628
1.296	-0.00671387	0.009729
1.298	0.00549316	0.00963135
1.3	0.00305176	0.00964355
1.302	-0.00488281	0.00964966
1.304	-0.0128174	0.00964355
1.306	-0.0012207	0.00962524
1.308	-0.00305176	0.00957031
1.31	0.0115967	0.00956421
1.312	-0.0213623	0.00965576
1.314	-0.00183105	0.00960693
1.316	0.00183105	0.00958862
1.318	0.00671387	0.00957031
1.32	0.00488281	0.00950317
1.322	0.010376	0.0095459
1.324	0.0256348	0.0097229
1.326	-0.00793457	0.00962524
1.328	-0.012207	0.00959473
1.33	0.00610352	0.00956421
1.332	0.0140381	0.00966187
1.334	-0.0183105	0.00983887
1.336	-0.0128174	0.00986328
1.338	-0.00366211	0.0098938
1.34	-0.0134277	0.00986938
1.342	0.00488281	0.00986328
1.344	-0.00549316	0.00964966
1.346	-0.0109863	0.00959473
1.348	0.0274658	0.00985107
1.35	0.00183105	0.00979614
1.352	-0.010376	0.00985107
1.354	-0.0164795	0.00993042
1.356	0.012207	0.00992432
1.358	-0.00549316	0.00981445
1.36	-0.00244141	0.00982056
1.362	-0.0152588	0.0098938
1.364	0.0012207	0.00982666
1.366	-0.00183105	0.00974121
1.368	0.00976563	0.00968628
1.37	0.00488281	0.00963135
1.372	-0.00976563	0.00967407
1.374	-0.0115967	0.00967407
1.376	0.0268555	0.00978394
1.378	-0.0146484	0.00985718
1.38	-0.00793457	0.00986938
1.382	-0.00244141	0.0098877
1.384	-0.000610352	0.00960083
1.386	0.0115967	0.00963135
1.388	0.010376	0.00968018
1.39	0.00671387	0.00966187
1.392	0.00488281	0.00947876
1.394	0.0177002	0.00957031
1.396	-0.0012207	0.00956421
1.398	0.00732422	0.00942993
1.4	-0.0012207	0.00935059
1.402	-0.0152588	0.00938721
1.404	0.00488281	0.00919189
1.406	-0.00183105	0.009021
1.408	0.010376	0.00901489
1.41	-0.00732422	0.00888672
1.412	-0.0219727	0.00891724
1.414	0.0213623	0.00903931
1.416	0.0128174	0.00914917
1.418	-0.0134277	0.00927124
1.42	0.00915527	0.00930176
1.422	0	0.00921021
1.424	-0.0183105	0.00919189
1.426	0.0128174	0.00925293
1.428	0.0012207	0.00925903
1.43	-0.0152588	0.00927124
1.432	-0.00366211	0.00916748
1.434	0.00610352	0.00896606
1.436	-0.00732422	0.00899048
1.438	0.00427246	0.00900879
1.44	-0.00732422	0.0090332
1.442	0.0012207	0.00891724
1.444	0.00671387	0.0088623
1.446	0.0012207	0.00878296
1.448	0.00488281	0.00873413
1.45	-0.0134277	0.00882568
1.452	0.00488281	0.00886841
1.454	0.012207	0.0088501
1.456	0.00366211	0.00876465
1.458	0.00183105	0.00872192
1.46	0.010376	0.0086731
1.462	0.00549316	0.0086731
1.464	0.00549316	0.00869751
1.466	0.0189209	0.00877686
1.468	0.0189209	0.00894165
1.47	-0.0146484	0.00892334
1.472	0.00427246	0.0088501
1.474	0.00610352	0.00883179
1.476	0.00488281	0.00886841
1.478	-0.0238037	0.00891113
1.48	-0.00183105	0.00875854
1.482	0.0170898	0.00888672
1.484	-0.0189209	0.00895996
1.486	0.00244141	0.00891724
1.488	-0.00671387	0.00888672
1.49	-0.00610352	0.00892334
1.492	0.0152588	0.00906982
1.494	-0.0012207	0.0090271
1.496	-0.00610352	0.009021
1.498	0	0.00896606
1.5	-0.00915527	0.0090271
1.502	-0.00610352	0.00903931
1.504	0.0170898	0.00908203
1.506	-0.010376	0.00917358
1.508	-0.00427246	0.00918579
1.51	0.00488281	0.00911865
1.512	-0.00854492	0.00899048
1.514	0.00549316	0.0090271
1.516	0.0115967	0.00912476
1.518	-0.0250244	0.00930786
1.52	0.0134277	0.00939331
1.522	0.0213623	0.00950317
1.524	0.00305176	0.00927734
1.526	-0.010376	0.00930176
1.528	-0.00610352	0.00924072
1.53	0.00854492	0.00926514
1.532	0.00793457	0.0092041
1.534	0.00732422	0.00909424
1.536	-0.00793457	0.00904541
1.538	0.0128174	0.00913696
1.54	-0.00854492	0.00908813
1.542	-0.00183105	0.00905762
1.544	0.0164795	0.00916748
1.546	-0.0012207	0.00906982
1.548	0.00610352	0.0088562
1.55	0.0134277	0.00897217
1.552	0.00732422	0.00894165
1.554	-0.00915527	0.00886841
1.556	0.0012207	0.00875854
1.558	0	0.00870361
1.56	0.0177002	0.0088562
1.562	-0.0201416	0.00890503
1.564	0.0109863	0.00900269
1.566	-0.0268555	0.00925293
1.568	0.00427246	0.009198
1.57	-0.00732422	0.00922241
1.572	-0.0134277	0.00925903
1.574	0.0012207	0.00915527
1.576	-0.0170898	0.00905762
1.578	0.00610352	0.00897217
1.58	-0.00488281	0.00894165
1.582	-0.00854492	0.00900269
1.584	0.00488281	0.00904541
1.586	0.00793457	0.00900879
1.588	0.0201416	0.00910645
1.59	-0.0146484	0.00918579
1.592	0.00366211	0.00917358
1.594	0.00732422	0.00906982
1.596	0.00793457	0.00913696
1.598	-0.00854492	0.00914917
1.6	0.0158691	0.00929565
1.602	-0.0164795	0.00930786
1.604	0.00854492	0.00934448
1.606	-0.00488281	0.009375
1.608	0.00915527	0.00936279
1.61	-0.0244141	0.00953369
1.612	0.020752	0.00952148
1.614	0.00549316	0.00936279
1.616	0.00793457	0.00931396
1.618	-0.00732422	0.00925293
1.62	0.010376	0.00926514
1.622	0.0140381	0.00940552
1.624	-0.00244141	0.00924683
1.626	0.0140381	0.00925903
1.628	0.010376	0.00935059
1.63	-0.0189209	0.00938721
1.632	-0.00244141	0.009375
1.634	0.00671387	0.0093811
1.636	0.0115967	0.00942383
1.638	-0.00732422	0.00945435
1.64	-0.0268555	0.00964966
1.642	0.00244141	0.00966187
1.644	-0.0128174	0.0097229
1.646	0.00427246	0.00975342
1.648	0	0.00970459
1.65	0.00915527	0.00966187
1.652	-0.0146484	0.00975952
1.654	0.00488281	0.00968628
1.656	-0.00610352	0.00971069
1.658	-0.00244141	0.0097168
1.66	0.00915527	0.00970459
1.662	0.00671387	0.0097168
1.664	-0.0115967	0.00977783
1.666	0.00915527	0.00968018
1.668	-0.0012207	0.00950317
1.67	-0.00732422	0.00942993
1.672	0.00671387	0.00945435
1.674	0.00183105	0.00941162
1.676	-0.0183105	0.0095459
1.678	-0.0134277	0.00944214
1.68	0.0195313	0.00961914
1.682	-0.0231934	0.00968018
1.684	0.00366211	0.00952759
1.686	0.00366211	0.00953979
1.688	0.0134277	0.00960693
1.69	0.00244141	0.00957031
1.692	0.0152588	0.00957031
1.694	0.0256348	0.00981445
1.696	-0.0262451	0.0100159
1.698	-0.00366211	0.0100525
1.7	0.012207	0.010083
1.702	-0.012207	0.010144
1.704	-0.000610352	0.00997925
1.706	-0.010376	0.00997925
1.708	-0.0164795	0.0101013
1.71	-0.00305176	0.010083
1.712	0.0158691	0.0101563
1.714	-0.0183105	0.0102844
1.716	0.000610352	0.0101746
1.718	0.00915527	0.0100159
1.72	0.0012207	0.0098938
1.722	0.00610352	0.00974121
1.724	-0.00366211	0.00974731
1.726	-0.0012207	0.00965576
1.728	0.022583	0.00982056
1.73	0.00915527	0.00982666
1.732	0.00183105	0.00976563
1.734	0.00549316	0.00974731
1.736	0.010376	0.00977173
1.738	0	0.00964355
1.74	-0.00488281	0.00960693
1.742	-0.00732422	0.00966187
1.744	0.00854492	0.00958252
1.746	-0.0146484	0.0097168
1.748	-0.00793457	0.00973511
1.75	0.00183105	0.00961914
1.752	-0.00366211	0.00958252
1.754	-0.00671387	0.00955811
1.756	-0.00366211	0.00958252
1.758	0.020752	0.00979004
1.76	-0.0012207	0.00962524
1.762	0.00610352	0.00948486
1.764	-0.00183105	0.00939331
1.766	0.0115967	0.00924072
1.768	0.0109863	0.00930786
1.77	0.00976563	0.00933228
1.772	-0.00183105	0.00921631
1.774	-0.00183105	0.00922241
1.776	-0.000610352	0.00905762
1.778	0.0146484	0.00914307
1.78	-0.0170898	0.00926514
1.782	-0.00549316	0.00923462
1.784	-0.0012207	0.009198
1.786	-0.0146484	0.00926514
1.788	-0.00915527	0.00915527
1.79	0.0109863	0.00911865
1.792	0.0128174	0.00921021
1.794	0.00671387	0.0092041
1.796	-0.00366211	0.00916138
1.798	0.00976563	0.00917358
1.8	-0.00427246	0.00905762
1.802	0.0183105	0.00907593
1.804	0.020752	0.009198
1.806	-0.0134277	0.00928345
1.808	0.00854492	0.00927734
1.81	0	0.0090332
1.812	-0.00183105	0.00884399
1.814	0.0128174	0.00891724
1.816	0.00549316	0.00889282
1.818	-0.00732422	0.00889282
1.82	0.0012207	0.00880127
1.822	0.00305176	0.00869141
1.824	0.00244141	0.00869141
1.826	-0.00549316	0.00860596
1.828	0.000610352	0.0085083
1.83	0.00610352	0.00838013
1.832	0.00549316	0.00841064
1.834	0.0354004	0.00869751
1.836	0.00915527	0.0086731
1.838	-0.0213623	0.00881348
1.84	0.0158691	0.00870361
1.842	0.0262451	0.00894165
1.844	-0.010376	0.00891724
1.846	-0.00610352	0.00893555
1.848	-0.0115967	0.00905151
1.85	-0.00244141	0.00898438
1.852	-0.00671387	0.00890503
1.854	-0.0140381	0.00899658
1.856	-0.00793457	0.00901489
1.858	0.00183105	0.00900879
1.86	-0.000610352	0.00892334
1.862	-0.00488281	0.00890503
1.864	0.00976563	0.00888672
1.866	-0.020752	0.00900269
1.868	0.0109863	0.00910034
1.87	-0.00610352	0.00908813
1.872	0.00610352	0.00908203
1.874	-0.00366211	0.00910034
1.876	0.0012207	0.00892944
1.878	0.00427246	0.00883789
1.88	-0.00427246	0.0086853
1.882	0.0164795	0.00861816
1.884	0.00183105	0.00859985
1.886	0.0164795	0.00872803
1.888	-0.0134277	0.00872803
1.89	0.012207	0.00882568
1.892	0.012207	0.00879517
1.894	0.000610352	0.00854492
1.896	-0.00366211	0.00831909
1.898	-0.00854492	0.00836792
1.9	0.00183105	0.00826416
1.902	-0.00549316	0.00819702
1.904	-0.00793457	0.00827026
1.906	0.00732422	0.00823975
1.908	0.00610352	0.00813599
1.91	-0.0134277	0.00823975
1.912	0.00915527	0.00817261
1.914	0.00305176	0.00802002
1.916	0.0177002	0.00819092
1.918	0.0195313	0.00829468
1.92	-0.0115967	0.00839844
1.922	0.00366211	0.00837402
1.924	0.0140381	0.00847778
1.926	-0.00610352	0.00852661
1.928	-0.00366211	0.0083374
1.93	-0.00915527	0.0083374
1.932	-0.000610352	0.0083252
1.934	-0.00854492	0.00835571
1.936	0.00183105	0.00827026
1.938	-0.0140381	0.00841064
1.94	0.00549316	0.00841675
1.942	0.00732422	0.00841675
1.944	0.0140381	0.00847168
1.946	0.0109863	0.00843506
1.948	-0.00671387	0.00842285
1.95	0.010376	0.0085083
1.952	0.00244141	0.00849609
1.954	0.0134277	0.00856323
1.956	0.00671387	0.00859375
1.958	-0.010376	0.00848999
1.96	0.0256348	0.00873413
1.962	0.00183105	0.00869141
1.964	0.0140381	0.00881348
1.966	-0.00244141	0.00872192
1.968	-0.00427246	0.00865479
1.97	0.0244141	0.00880127
1.972	-0.00427246	0.00882568
1.974	0.00427246	0.0088501
1.976	-0.0128174	0.00897217
1.978	-0.0140381	0.00896606
1.98	0.000610352	0.00880127
1.982	-0.00305176	0.00877686
1.984	-0.000610352	0.00877075
1.986	-0.00732422	0.00869751
1.988	-0.00610352	0.00866699
1.99	0.0134277	0.00869141
1.992	0.0115967	0.0086792
1.994	-0.0140381	0.00875244
1.996	0.00976563	0.00881348
1.998	0.0183105	0.00889893
2	0.00854492	0.00894165
2.002	-0.00793457	0.00883789
2.004	-0.00427246	0.0086731
2.006	-0.00793457	0.00861816
2.008	0.00793457	0.00861206
2.01	0.00549316	0.00866699
2.012	-0.0195313	0.00884399
2.014	0	0.00871582
2.016	0.00854492	0.00874634
2.018	0.00366211	0.00870972
2.02	0.000610352	0.00870361
2.022	0.010376	0.00877686
2.024	0.0152588	0.00890503
2.026	-0.0201416	0.00905151
2.028	0.00854492	0.00913086
2.03	-0.0115967	0.00918579
2.032	0.0262451	0.00939331
2.034	-0.0012207	0.00905151
2.036	-0.0268555	0.00922852
2.038	0.00671387	0.00908203
2.04	-0.00915527	0.00901489
2.042	0.00671387	0.00881958
2.044	0.022583	0.00894165
2.046	-0.00244141	0.00890503
2.048	-0.0323486	0.00911255
2.05	-0.00244141	0.00911255
2.052	0.0109863	0.00915527
2.054	-0.00427246	0.00905762
2.056	-0.0164795	0.00914307
2.058	-0.00793457	0.0092041
2.06	-0.00305176	0.00922852
2.062	-0.0115967	0.00929565
2.064	0.00610352	0.00925903
2.066	-0.00976563	0.00914917
2.068	-0.00488281	0.00908813
2.07	-0.00183105	0.00904541
2.072	0.0146484	0.00913086
2.074	0.00488281	0.00914307
2.076	0.00183105	0.00914917
2.078	-0.0146484	0.00925293
2.08	0.00488281	0.00925903
2.082	-0.00793457	0.00917358
2.084	-0.0134277	0.00928955
2.086	0.00915527	0.00921631
2.088	0.0170898	0.00925293
2.09	-0.0170898	0.00930176
2.092	-0.00244141	0.0092041
2.094	0.0115967	0.00931396
2.096	0.00427246	0.00932007
2.098	0.0140381	0.009375
2.1	0.0183105	0.00953979
2.102	-0.010376	0.00958862
2.104	0.0219727	0.009729
2.106	0.0164795	0.00982056
2.108	-0.0354004	0.0101135
2.11	0.00549316	0.0100342
2.112	0.0164795	0.0101074
2.114	0.00244141	0.0101013
2.116	-0.00732422	0.00999756
2.118	0.0012207	0.00981445
2.12	-0.0012207	0.00971069
2.122	0.0109863	0.00978394
2.124	-0.00854492	0.009729
2.126	-0.00671387	0.00973511
2.128	0.0256348	0.00995483
2.13	-0.00732422	0.00993652
2.132	0.00976563	0.0100281
2.134	-0.00244141	0.00996704
2.136	-0.0109863	0.0100586
2.138	-0.0183105	0.0101013
2.14	0.0238037	0.0102844
2.142	-0.010376	0.0103149
2.144	0.000610352	0.0101807
2.146	0.00610352	0.0101318
2.148	-0.0134277	0.010199
2.15	-0.010376	0.010199
2.152	0.020752	0.0103821
2.154	-0.00305176	0.0102783
2.156	0.00305176	0.0102417
2.158	0.0012207	0.0101501
2.16	-0.00305176	0.00992432
2.162	-0.00549316	0.00996094
2.164	-0.00244141	0.00984497
2.166	0.00854492	0.00990601
2.168	0.00793457	0.00994263
2.17	0.00366211	0.00973511
2.172	0.00244141	0.0097168
2.174	0.00488281	0.0097229
2.176	-0.0201416	0.00979614
2.178	0.0219727	0.00987549
2.18	0.0311279	0.0101807
2.182	-0.00305176	0.0101807
2.184	-0.00488281	0.0102234
2.186	0.0219727	0.0103699
2.188	0.00549316	0.0103638
2.19	-0.00610352	0.0102905
2.192	0.012207	0.0102966
2.194	0.00183105	0.0101746
2.196	0.010376	0.0101807
2.198	-0.0201416	0.010199
2.2	0.00488281	0.0101624
2.202	0.012207	0.0102051
2.204	0.010376	0.0102661
2.206	-0.0012207	0.010199
2.208	-0.00183105	0.0101379
2.21	0.00732422	0.0101563
2.212	0.00427246	0.0100037
2.214	-0.00183105	0.010022
2.216	0	0.00993652
2.218	0.00610352	0.00996094
2.22	-0.00244141	0.00997925
2.222	-0.00427246	0.00991821
2.224	-0.00305176	0.00979614
2.226	0.00854492	0.00968018
2.228	-0.00488281	0.00964355
2.23	-0.00793457	0.00960693
2.232	0.00793457	0.00942383
2.234	0.0012207	0.00942383
2.236	-0.0183105	0.00933838
2.238	0.00549316	0.00932617
2.24	0.0244141	0.00947876
2.242	-0.000610352	0.00941772
2.244	-0.00976563	0.00928955
2.246	0.0146484	0.00941162
2.248	-0.000610352	0.00909424
2.25	0.00549316	0.00912476
2.252	0.00244141	0.00903931
2.254	-0.0109863	0.00910645
2.256	0.00305176	0.00897217
2.258	-0.0152588	0.00904541
2.26	0.00183105	0.0090332
2.262	0.0231934	0.00914917
2.264	0.00488281	0.00913696
2.266	-0.00610352	0.00910034
2.268	0.0189209	0.00924072
2.27	-0.0140381	0.00936279
2.272	0.0286865	0.00950317
2.274	0.0128174	0.00958252
2.276	0.0012207	0.00957642
2.278	-0.00793457	0.00950928
2.28	0.0012207	0.00947266
2.282	-0.00244141	0.00941772
2.284	-0.0134277	0.00941772
2.286	0.0152588	0.00947876
2.288	-0.0274658	0.00958252
2.29	0.0177002	0.00958862
2.292	-0.0231934	0.00979614
2.294	-0.00427246	0.0097229
2.296	0.0012207	0.00969238
2.298	-0.00732422	0.00962524
2.3	-0.00549316	0.00949707
2.302	0.00549316	0.00944824
2.304	0.00915527	0.00932007
2.306	-0.0134277	0.00928955
2.308	-0.00244141	0.00895996
2.31	0.00305176	0.00893555
2.312	-0.00732422	0.00884399
2.314	0.0128174	0.00894775
2.316	0.00305176	0.00890503
2.318	-0.0158691	0.00905151
2.32	-0.00793457	0.00911865
2.322	0.0286865	0.00929565
2.324	0.0152588	0.00936279
2.326	-0.020752	0.00950317
2.328	0.0012207	0.00925903
2.33	0.0158691	0.00934448
2.332	0.0231934	0.00947876
2.334	0.0164795	0.00961914
2.336	-0.0128174	0.00963745
2.338	-0.0109863	0.00956421
2.34	-0.00793457	0.00940552
2.342	0.0134277	0.00943604
2.344	-0.00610352	0.00949097
2.346	-0.00732422	0.00950317
2.348	0.0244141	0.00961304
2.35	-0.020752	0.0097168
2.352	0.00488281	0.00955811
2.354	-0.00488281	0.00957642
2.356	-0.0158691	0.00970459
2.358	0.0421143	0.0101135
2.36	0.00305176	0.0101135
2.362	-0.0189209	0.0102478
2.364	-0.0164795	0.0103882
2.366	-0.0134277	0.010437
2.368	0.0274658	0.0106323
2.37	-0.0311279	0.010907
2.372	-0.0164795	0.0110474
2.374	0.00366211	0.0110352
2.376	-0.0213623	0.0110474
2.378	0.0158691	0.0109863
2.38	-0.00427246	0.0107178
2.382	-0.03479	0.0110352
2.384	0.022583	0.0112122
2.386	0.0262451	0.0112549
2.388	0.0158691	0.0113586
2.39	-0.0213623	0.0115112
2.392	-0.0158691	0.0115479
2.394	-0.0195313	0.0117249
2.396	0.0305176	0.0119263
2.398	0.00976563	0.0118225
2.4	-0.0238037	0.0120117
2.402	-0.0231934	0.0121216
2.404	0.0152588	0.0121704
2.406	0.00427246	0.0122009
2.408	-0.0158691	0.0123413
2.41	0.0183105	0.0124512
2.412	0.00305176	0.012439
2.414	-0.00183105	0.012439
2.416	0.0238037	0.012677
2.418	0.0311279	0.0129272
2.42	0.0610352	0.0135132
2.422	0.00244141	0.0134949
2.424	0.00854492	0.0135498
2.426	-0.0671387	0.0141357
2.428	0.0286865	0.0143738
2.43	-0.0311279	0.0146057
2.432	-0.0469971	0.0149963
2.434	-0.0482178	0.0154663
2.436	-0.0415039	0.0156982
2.438	-0.0549316	0.0161926
2.44	-0.00732422	0.0160217
2.442	0.0366211	0.0163818
2.444	0.0134277	0.0164185
2.446	0.0396729	0.0166687
2.448	0.0360107	0.0170227
2.45	-0.0231934	0.0171997
2.452	-0.0292969	0.0174683
2.454	0.0415039	0.0177734
2.456	0.0146484	0.0178894
2.458	-0.0701904	0.0184387
2.46	-0.0219727	0.0186401
2.462	0.0256348	0.0186646
2.464	-0.0372314	0.018988
2.466	-0.0335693	0.0192627
2.468	-0.00183105	0.0190918
2.47	0.010376	0.0190552
2.472	0.0708008	0.0194763
2.474	-0.0115967	0.0194641
2.476	0.0531006	0.0199829
2.478	0.022583	0.0201294
2.48	0.0317383	0.0204346
2.482	0.0518799	0.020929
2.484	-0.0537109	0.0213318
2.486	0.109253	0.0222717
2.488	0.0170898	0.022168
2.49	-0.0317383	0.0223083
2.492	-0.0500488	0.0225769
2.494	0.000610352	0.0225403
2.496	-0.0140381	0.0226685
2.498	-0.0231934	0.0228271
2.5	-0.0598145	0.0233704
2.502	-0.108032	0.0243958
2.504	0.0518799	0.024823
2.506	-0.0201416	0.0248901
2.508	-0.0213623	0.0250793
2.51	-0.0512695	0.0255615
2.512	-0.143433	0.0269226
2.514	-0.0811768	0.0276062
2.516	0.0238037	0.0278137
2.518	-0.0292969	0.027948
2.52	-0.141602	0.0292847
2.522	-0.0708008	0.0297058
2.524	-0.0891113	0.0304443
2.526	-0.0256348	0.0304932
2.528	-0.0177002	0.030658
2.53	-0.0836182	0.0313354
2.532	-0.115356	0.0322571
2.534	-0.0201416	0.0322937
2.536	-0.0231934	0.0323975
2.538	-0.0708008	0.0329956
2.54	-0.112915	0.0340454
2.542	-0.109253	0.0350037
2.544	-0.010376	0.0350464
2.546	-0.0341797	0.0353149
2.548	-0.0622559	0.0356934
2.55	-0.0158691	0.0356445
2.552	-0.00854492	0.0356812
2.554	0.00549316	0.0356873
2.556	-0.128784	0.0368164
2.558	0.0469971	0.0368652
2.56	-0.0769043	0.0376038
2.562	-0.0335693	0.0377502
2.564	0.0317383	0.0379028
2.566	0.0506592	0.0382751
2.568	0.0189209	0.0381897
2.57	-0.065918	0.0385376
2.572	0.0482178	0.038855
2.574	0.0445557	0.0392639
2.576	0.0262451	0.0393127
2.578	-0.0292969	0.039447
2.58	-0.0341797	0.0397461
2.582	0.00732422	0.0394714
2.584	-0.0610352	0.039856
2.586	-0.0482178	0.0400757
2.588	0.0292969	0.04021
2.59	-0.12085	0.0412048
2.592	0.0909424	0.0419556
2.594	-0.0292969	0.0420532
2.596	-0.0402832	0.0421509
2.598	-0.010376	0.042157
2.6	0.0256348	0.0421753
2.602	0.0219727	0.0421631
2.604	-0.131226	0.0433228
2.606	-0.00488281	0.0433289
2.608	0.0537109	0.0437073
2.61	0.0292969	0.0438171
2.612	0.0262451	0.0440491
2.614	-0.0128174	0.0441589
2.616	-0.000610352	0.043927
2.618	0.0671387	0.0442871
2.62	0.0494385	0.0441711
2.622	0.0567627	0.0447144
2.624	-0.0457764	0.0450867
2.626	-0.0305176	0.0447205
2.628	0.0183105	0.0446167
2.63	-0.067749	0.0449829
2.632	-0.0445557	0.0449585
2.634	-0.010376	0.0445801
2.636	-0.0512695	0.0446777
2.638	-0.0964355	0.0450928
2.64	0.0164795	0.0451843
2.642	-0.0280762	0.0450989
2.644	-0.0012207	0.0449768
2.646	0.0250244	0.0448303
2.648	-0.0372314	0.0448425
2.65	0.0268555	0.0448792
2.652	0.032959	0.0449158
2.654	-0.0445557	0.0449463
2.656	0.0445557	0.0452454
2.658	0.0292969	0.0448364
2.66	-0.0787354	0.0454041
2.662	-0.0177002	0.0453247
2.664	-0.0140381	0.0450928
2.666	0.0482178	0.0452393
2.668	-0.0250244	0.0454712
2.67	-0.0427246	0.0457947
2.672	0.0378418	0.0454651
2.674	-0.0219727	0.0455688
2.676	0.0537109	0.045575
2.678	-0.0799561	0.0461487
2.68	0.0537109	0.0463684
2.682	-0.020752	0.0460571
2.684	0.00427246	0.0455627
2.686	0.010376	0.044574
2.688	0.020752	0.0446106
2.69	0.0524902	0.0448181
2.692	0.0390625	0.0447083
2.694	-0.0256348	0.0449585
2.696	-0.0292969	0.0451111
2.698	0.0274658	0.0451538
2.7	0.0512695	0.0450684
2.702	-0.0640869	0.0446289
2.704	0.0524902	0.044635
2.706	0.0848389	0.045282
2.708	-0.0598145	0.0456665
2.71	-0.0396729	0.0455505
2.712	-0.0604248	0.0447205
2.714	0.0177002	0.0440857
2.716	0.10376	0.0448853
2.718	-0.150146	0.0460937
2.72	-0.0720215	0.0453979
2.722	-0.00732422	0.0447632
2.724	0.0115967	0.043988
2.726	0.03479	0.0440796
2.728	-0.0262451	0.044165
2.73	0.0970459	0.0442993
2.732	0.0360107	0.0435059
2.734	0.0158691	0.0434631
2.736	-0.022583	0.043457
2.738	0.0640869	0.0433899
2.74	0.123291	0.0434937
2.742	0.0268555	0.0426697
2.744	-0.0537109	0.043103
2.746	0.022583	0.0429871
2.748	0.0439453	0.042804
2.75	0.0354004	0.0429993
2.752	0.0341797	0.0432556
2.754	-0.0848389	0.0440491
2.756	0.0689697	0.0434509
2.758	0.0549316	0.0435303
2.76	-0.090332	0.0436646
2.762	0.0634766	0.0439636
2.764	0.0140381	0.0437866
2.766	-0.117188	0.0444519
2.768	-0.0671387	0.0449341
2.77	0.0238037	0.0445129
2.772	-0.0579834	0.0446106
2.774	-0.119629	0.0453613
2.776	-0.0561523	0.0456604
2.778	-0.0189209	0.0455566
2.78	-0.010376	0.0453186
2.782	-0.0488281	0.0457336
2.784	-0.00610352	0.0451843
2.786	0.010376	0.0448059
2.788	0.0488281	0.0450012
2.79	-0.022583	0.0440186
2.792	-0.0408936	0.0435181
2.794	0.00610352	0.0432861
2.796	0.0512695	0.043396
2.798	0.100708	0.0442993
2.8	0.0592041	0.044635
2.802	-0.00244141	0.0444397
2.804	-0.00488281	0.0431763
2.806	0.088501	0.0440125
2.808	-0.00366211	0.043512
2.81	0.0183105	0.0434021
2.812	-0.0170898	0.0433105
2.814	-0.0701904	0.0438843
2.816	-0.0250244	0.0441284
2.818	0.043335	0.0438904
2.82	-0.0579834	0.0439758
2.822	-0.0274658	0.0436829
2.824	0.0280762	0.0435059
2.826	0.0152588	0.0433533
2.828	0.022583	0.043396
2.83	0.0811768	0.0435303
2.832	0.0292969	0.0433777
2.834	-0.0854492	0.0441284
2.836	0.0463867	0.0440796
2.838	0.00976563	0.0432129
2.84	0.0762939	0.043811
2.842	-0.0476074	0.0440063
2.844	-0.065918	0.0446533
2.846	-0.067749	0.0450806
2.848	0.0378418	0.0450867
2.85	0.0115967	0.0449341
2.852	-0.0512695	0.0451172
2.854	-0.0750732	0.0454224
2.856	0.0524902	0.0455017
2.858	0.000610352	0.0452148
2.86	-0.0396729	0.0448242
2.862	-0.0158691	0.0448059
2.864	0.0787354	0.0454529
2.866	0.00244141	0.0449951
2.868	-0.00915527	0.0448364
2.87	-0.0848389	0.0452576
2.872	0.0445557	0.0453247
2.874	0.0170898	0.0452759
2.876	0.0189209	0.044928
2.878	-0.0494385	0.0446228
2.88	0.0286865	0.0443726
2.882	0.0537109	0.0447021
2.884	-0.0402832	0.0450623
2.886	0.0524902	0.0454834
2.888	0.0512695	0.0457886
2.89	-0.0256348	0.04552
2.892	-0.0384521	0.0455139
2.894	0.0164795	0.0454224
2.896	0.0012207	0.0451416
2.898	-0.010376	0.0449707
2.9	0.0183105	0.0446411
2.902	-0.0549316	0.0445496
2.904	-0.0134277	0.0441589
2.906	0.0177002	0.0434875
2.908	-0.0201416	0.0430908
2.91	0.0183105	0.0428772
2.912	0.0140381	0.0424133
2.914	-0.0378418	0.0426147
2.916	-0.00427246	0.0416199
2.918	0.0537109	0.0406555
2.92	-0.0439453	0.0403748
2.922	0.022583	0.0405273
2.924	0.0531006	0.0409424
2.926	-0.0427246	0.0410217
2.928	-0.0177002	0.0409363
2.93	-0.0012207	0.039978
2.932	0.0335693	0.0399536
2.934	0.0189209	0.0399841
2.936	-0.0183105	0.0399414
2.938	0.0366211	0.0396667
2.94	-0.0323486	0.0387573
2.942	-0.0299072	0.0387878
2.944	0.020752	0.0384583
2.946	0.0427246	0.0386597
2.948	-0.0140381	0.0383606
2.95	0.0378418	0.038385
2.952	-0.00793457	0.0381226
2.954	-0.100708	0.0382813
2.956	0.0701904	0.0382935
2.958	0.0775146	0.0385193
2.96	0.0360107	0.0379761
2.962	-0.0158691	0.0375
2.964	-0.0305176	0.0376648
2.966	0.0146484	0.0366394
2.968	0.0488281	0.0364563
2.97	0.00427246	0.036261
2.972	-0.0299072	0.0359802
2.974	-0.00793457	0.0348633
2.976	-0.0689697	0.0349915
2.978	-0.032959	0.0351318
2.98	0.010376	0.0351318
2.982	0.00488281	0.0346924
2.984	-0.0140381	0.0347717
2.986	-0.00427246	0.0347107
2.988	0.0445557	0.034668
2.99	0.0476074	0.0349182
2.992	0.0634766	0.035144
2.994	0.022583	0.0353088
2.996	-0.00305176	0.0348267
2.998	0.0549316	0.0343689
3	0.0177002	0.0339539
3.002	-0.010376	0.0340332
3.004	0.0524902	0.0345093
3.006	-0.0732422	0.0343567
3.008	-0.0872803	0.0351929
3.01	0.0469971	0.0354797
3.012	0.0714111	0.0360229
3.014	-0.0921631	0.0362427
3.016	-0.0244141	0.0362366
3.018	-0.0280762	0.036084
3.02	0.0183105	0.0356873
3.022	0.00915527	0.0355042
3.024	0.0140381	0.0353638
3.026	0.0482178	0.0356934
3.028	0.0183105	0.0356506
3.03	0.0201416	0.0350403
3.032	-0.0708008	0.0354553
3.034	0.0598145	0.035199
3.036	0.0537109	0.0352722
3.038	-0.00244141	0.035199
3.04	-0.0549316	0.0349854
3.042	-0.0012207	0.0345215
3.044	-0.0140381	0.0340027
3.046	0.0146484	0.0334717
3.048	-0.00366211	0.0331299
3.05	0.0244141	0.0332581
3.052	-0.0268555	0.0330139
3.054	-0.045166	0.0327148
3.056	0.0366211	0.0325562
3.058	0.0872803	0.0334229
3.06	-0.0671387	0.0336975
3.062	0.0341797	0.0338806
3.064	-0.0323486	0.0334167
3.066	0.0445557	0.0338379
3.068	0.0256348	0.0340027
3.07	0.0140381	0.0332947
3.072	-0.0335693	0.0331848
3.074	-0.0231934	0.0332458
3.076	0.0134277	0.0331909
3.078	0.0158691	0.0328552
3.08	0.0170898	0.0327393
3.082	-0.0164795	0.0323669
3.084	-0.03479	0.032312
3.086	-0.0378418	0.0321655
3.088	0.0598145	0.032251
3.09	0.0250244	0.0322449
3.092	0.00244141	0.0318848
3.094	-0.020752	0.0319275
3.096	0.0262451	0.0321777
3.098	0.0128174	0.0322021
3.1	-0.00976563	0.0321167
3.102	-0.0170898	0.0317383
3.104	0.032959	0.0319336
3.106	-0.0494385	0.032251
3.108	0.0146484	0.032196
3.11	-0.0604248	0.0326172
3.112	-0.0592041	0.0330688
3.114	-0.00244141	0.0327148
3.116	-0.012207	0.0327942
3.118	0.0219727	0.0324768
3.12	-0.0354004	0.0323914
3.122	0.0213623	0.0323792
3.124	0.0860596	0.0327087
3.126	0.010376	0.0323853
3.128	-0.0469971	0.0326782
3.13	0.0317383	0.0329834
3.132	0.010376	0.0327515
3.134	-0.0140381	0.0327026
3.136	-0.022583	0.0327454
3.138	0	0.0323792
3.14	-0.0952148	0.0330078
3.142	0.0195313	0.0329041
3.144	0.0390625	0.0330872
3.146	0.000610352	0.032666
3.148	-0.0305176	0.0328308
3.15	0.000610352	0.0324585
3.152	0.00366211	0.0324158
3.154	-0.00915527	0.0315002
3.156	0.065918	0.0314575
3.158	-0.0439453	0.0311218
3.16	-0.0128174	0.0308899
3.162	-0.0634766	0.031366
3.164	0.0421143	0.0314819
3.166	0.0134277	0.0314697
3.168	-0.043335	0.0314148
3.17	-0.00732422	0.0314453
3.172	0.00793457	0.0312256
3.174	0.0262451	0.0314087
3.176	-0.020752	0.0309265
3.178	0.0189209	0.0307861
3.18	0.00366211	0.030719
3.182	0.0335693	0.0310059
3.184	0.00488281	0.0309143
3.186	0.0323486	0.0311951
3.188	0.0170898	0.0309204
3.19	-0.0317383	0.0307617
3.192	0.0268555	0.0303955
3.194	-0.0115967	0.0302856
3.196	0.0421143	0.0306763
3.198	-0.010376	0.0302307
3.2	0.0115967	0.0301697
3.202	-0.012207	0.030188
3.204	-0.0268555	0.0299316
3.206	0.0128174	0.0293274
3.208	0.0213623	0.0286682
3.21	0.00183105	0.0282166
3.212	-0.0476074	0.0279785
3.214	-0.012207	0.027179
3.216	-0.0262451	0.0271973
3.218	-0.032959	0.0272461
3.22	-0.0134277	0.0271973
3.222	0.0183105	0.0272888
3.224	0.00366211	0.0271851
3.226	0.0231934	0.0269348
3.228	0.055542	0.0273071
3.23	-0.0695801	0.0278015
3.232	0.0732422	0.0278259
3.234	0.0366211	0.027594
3.236	-0.067749	0.0277344
3.238	0.0250244	0.0279602
3.24	-0.0274658	0.0276855
3.242	0.00793457	0.0277527
3.244	-0.00976563	0.02771
3.246	-0.0408936	0.0279724
3.248	0.00854492	0.0280212
3.25	0.0634766	0.0284119
3.252	0.0512695	0.028656
3.254	-0.0512695	0.028717
3.256	-0.00427246	0.0283936
3.258	0.0140381	0.0276611
3.26	-0.0158691	0.0271484
3.262	0.0170898	0.0269775
3.264	-0.0158691	0.0268127
3.266	0.00732422	0.0264404
3.268	-0.0164795	0.0263489
3.27	0.00915527	0.0263
3.272	0.0012207	0.0259766
3.274	0.0292969	0.0260376
3.276	-0.0134277	0.0260376
3.278	0.0286865	0.0261658
3.28	0.0195313	0.0261902
3.282	0.0439453	0.0264648
3.284	-0.0311279	0.0264282
3.286	-0.00427246	0.0260925
3.288	0.0415039	0.0259094
3.29	-0.00793457	0.0257385
3.292	-0.0115967	0.0258301
3.294	-0.0109863	0.0257324
3.296	-0.0195313	0.0256653
3.298	0.0610352	0.0261475
3.3	-0.0128174	0.026178
3.302	-0.0146484	0.0261536
3.304	-0.0183105	0.0260071
3.306	0.0744629	0.0262573
3.308	-0.0140381	0.0262512
3.31	-0.0378418	0.0260254
3.312	-0.0317383	0.0257507
3.314	-0.012207	0.0258484
3.316	0.0128174	0.0258545
3.318	-0.0323486	0.0259583
3.32	-0.0524902	0.0261292
3.322	0.0183105	0.0260986
3.324	-0.0115967	0.025354
3.326	-0.00305176	0.0252808
3.328	-0.00183105	0.0248291
3.33	-0.00854492	0.0245972
3.332	0.012207	0.0246155
3.334	0.0012207	0.0244873
3.336	0.0604248	0.0248657
3.338	0.00976563	0.0249634
3.34	0.0671387	0.0246826
3.342	0.0274658	0.024762
3.344	-0.0476074	0.0248474
3.346	0.0439453	0.0252808
3.348	-0.0128174	0.0251038
3.35	0.0305176	0.0254028
3.352	0.0317383	0.0256836
3.354	-0.0408936	0.026001
3.356	-0.022583	0.0255676
3.358	-0.0891113	0.0260193
3.36	0.0311279	0.0262024
3.362	0.0115967	0.0256836
3.364	-0.03479	0.0256104
3.366	-0.0592041	0.0260681
3.368	0.0463867	0.0260986
3.37	0.0012207	0.0260376
3.372	0.0390625	0.0263489
3.374	-0.020752	0.0262939
3.376	0.0946045	0.0270325
3.378	0.0286865	0.0271301
3.38	0.0421143	0.0275146
3.382	-0.0341797	0.0275208
3.384	-0.0708008	0.0281799
3.386	0.00671387	0.0279236
3.388	-0.0476074	0.0282288
3.39	-0.0134277	0.0280457
3.392	0.0115967	0.0278931
3.394	0.00732422	0.0278503
3.396	-0.0769043	0.0281982
3.398	0.0341797	0.0284363
3.4	0.0238037	0.0285583
3.402	0.0341797	0.0287781
3.404	0.043335	0.0289429
3.406	0.0598145	0.0294128
3.408	0.00244141	0.0292236
3.41	0.0177002	0.0293823
3.412	-0.0543213	0.0294495
3.414	0.012207	0.0294495
3.416	-0.0115967	0.029303
3.418	-0.0402832	0.0293762
3.42	-0.0415039	0.029657
3.422	-0.078125	0.0302551
3.424	-0.0689697	0.0309082
3.426	-0.0231934	0.0309082
3.428	-0.0195313	0.0305481
3.43	0.0518799	0.0303711
3.432	0.0311279	0.02995
3.434	0.00427246	0.0296265
3.436	-0.0292969	0.0292419
3.438	0.0665283	0.029657
3.44	0.057373	0.0299561
3.442	-0.0689697	0.0305664
3.444	0.0543213	0.031012
3.446	0.0170898	0.0307739
3.448	0.0213623	0.0309021
3.45	0.0543213	0.0308105
3.452	0.0299072	0.0305969
3.454	0.00305176	0.0301147
3.456	-0.0524902	0.0305969
3.458	0.0158691	0.0306152
3.46	0.0421143	0.0308777
3.462	0.00244141	0.0307312
3.464	-0.0567627	0.0311401
3.466	-0.0335693	0.0314026
3.468	-0.00976563	0.0313354
3.47	-0.000610352	0.03125
3.472	-0.0317383	0.0315552
3.474	0.129395	0.0325562
3.476	-0.0396729	0.0328186
3.478	-0.0506592	0.0330383
3.48	0.0109863	0.0329529
3.482	-0.022583	0.0327393
3.484	0.0445557	0.0328735
3.486	-0.00610352	0.0328918
3.488	0.0640869	0.0331177
3.49	-0.0500488	0.0335388
3.492	-0.0146484	0.0335693
3.494	0.00610352	0.0335205
3.496	0.0262451	0.0335876
3.498	0.00183105	0.0329956
3.5	-0.0567627	0.0334351
3.502	0.00488281	0.0333374
3.504	-0.0158691	0.033313
3.506	-0.0311279	0.0328796
3.508	-0.0268555	0.0330078
3.51	0.0311279	0.0329407
3.512	-0.0366211	0.0329895
3.514	0.0439453	0.0333069
3.516	0.0256348	0.0334351
3.518	-0.0195313	0.0333069
3.52	-0.00427246	0.0328247
3.522	0.0152588	0.0327942
3.524	-0.00427246	0.0327209
3.526	0.0170898	0.0328613
3.528	0.055542	0.0333984
3.53	0.0170898	0.0334839
3.532	0.0146484	0.0335083
3.534	0.00732422	0.0335693
3.536	0.0341797	0.0333069
3.538	0.0439453	0.0336487
3.54	-0.0518799	0.0334961
3.542	0.000610352	0.0332275
3.544	0.0134277	0.0328857
3.546	0.0177002	0.0326233
3.548	-0.0390625	0.0328857
3.55	-0.0286865	0.0328674
3.552	0.0531006	0.0330811
3.554	0.0268555	0.0329407
3.556	-0.0323486	0.0330383
3.558	0.00488281	0.032196
3.56	-0.0360107	0.0322449
3.562	-0.0421143	0.03255
3.564	0.00732422	0.0322754
3.566	0.0115967	0.0317993
3.568	-0.0421143	0.0317566
3.57	-0.0354004	0.0320984
3.572	0.0518799	0.0322266
3.574	0.0262451	0.0322815
3.576	-0.0256348	0.0315918
3.578	-0.0524902	0.0318298
3.58	0.0701904	0.0321106
3.582	0.0378418	0.0321472
3.584	-0.00549316	0.0314941
3.586	-0.0341797	0.0317688
3.588	-0.0775146	0.0320679
3.59	0.0671387	0.032605
3.592	-0.00854492	0.0325745
3.594	0.00854492	0.0325867
3.596	0.0396729	0.0322144
3.598	0.000610352	0.0318787
3.6	-0.0170898	0.0318115
3.602	-0.0128174	0.0315979
3.604	-0.000610352	0.0311707
3.606	0.0170898	0.0307434
3.608	-0.0311279	0.0310303
3.61	0.0421143	0.0312744
3.612	-0.0140381	0.0308716
3.614	-0.0756836	0.0315063
3.616	0.0811768	0.0322021
3.618	0.0244141	0.0320435
3.62	-0.0531006	0.0321594
3.622	-0.0115967	0.0314941
3.624	0.0109863	0.0309143
3.626	-0.0726318	0.0314087
3.628	0.0244141	0.0314575
3.63	0.00183105	0.030957
3.632	-0.000610352	0.0306519
3.634	-0.0469971	0.0310791
3.636	0.0396729	0.0311829
3.638	0.0817871	0.0313354
3.64	-0.0274658	0.0310364
3.642	0.0335693	0.0306824
3.644	-0.00671387	0.0302063
3.646	-0.0115967	0.0301514
3.648	0.0463867	0.0304016
3.65	0.0280762	0.0301392
3.652	-0.0610352	0.0304504
3.654	-0.0335693	0.0307556
3.656	0.00366211	0.0302673
3.658	-0.00610352	0.0301697
3.66	0.0152588	0.0299011
3.662	0.00793457	0.0299561
3.664	-0.0183105	0.0295715
3.666	-0.0323486	0.0295593
3.668	-0.0140381	0.0296021
3.67	0.0592041	0.030188
3.672	0.00610352	0.0299316
3.674	-0.0146484	0.0287842
3.676	-0.0201416	0.0285889
3.678	-0.0134277	0.0282166
3.68	-0.00793457	0.028186
3.682	0.0152588	0.0281128
3.684	0.0610352	0.0282776
3.686	-0.03479	0.0285645
3.688	-0.00305176	0.0279541
3.69	-0.0115967	0.0275696
3.692	0.0305176	0.0277283
3.694	0.00976563	0.0277649
3.696	0.00732422	0.0275757
3.698	0.00549316	0.0276123
3.7	-0.0445557	0.0274902
3.702	-0.012207	0.0275635
3.704	-0.0164795	0.0275696
3.706	-0.0134277	0.0273926
3.708	0.0366211	0.0274902
3.71	-0.0262451	0.0274414
3.712	-0.00305176	0.0271057
3.714	0.0268555	0.0269348
3.716	-0.0012207	0.0266907
3.718	-0.0482178	0.0269775
3.72	0.0128174	0.027063
3.722	0.0506592	0.027417
3.724	-0.0115967	0.0274902
3.726	-0.0750732	0.0280701
3.728	0.0457764	0.0279724
3.73	-0.00305176	0.027832
3.732	0.020752	0.0278931
3.734	0.0494385	0.0283142
3.736	0.0323486	0.0282959
3.738	-0.0341797	0.0281982
3.74	0.0402832	0.0280823
3.742	0.0396729	0.0284729
3.744	0.0360107	0.0286987
3.746	-0.0805664	0.0293274
3.748	-0.032959	0.0292664
3.75	0.0262451	0.0292419
3.752	-0.0115967	0.0288269
3.754	-0.0726318	0.0292847
3.756	-0.012207	0.0290833
3.758	0.0292969	0.0293274
3.76	-0.0366211	0.0293335
3.762	0.0274658	0.029187
3.764	0.0531006	0.0296448
3.766	-0.0152588	0.0296814
3.768	-0.0518799	0.0297791
3.77	0.0720215	0.0301453
3.772	0.00732422	0.0296997
3.774	0.0463867	0.0299011
3.776	-0.0756836	0.0304016
3.778	-0.0653076	0.0305298
3.78	0.12146	0.0310425
3.782	-0.0201416	0.0308655
3.784	-0.055542	0.031366
3.786	0.0183105	0.0312073
3.788	0.0262451	0.0306946
3.79	-0.00732422	0.0300964
3.792	-0.0146484	0.0301575
3.794	0.00488281	0.0301208
3.796	0.0360107	0.0300842
3.798	-0.00671387	0.0301453
3.8	0.0445557	0.0304199
3.802	-0.00793457	0.0303711
3.804	0.00976563	0.0304626
3.806	0.00488281	0.0303406
3.808	-0.045166	0.030481
3.81	0.0183105	0.0302429
3.812	-0.0201416	0.030304
3.814	0.0109863	0.029657
3.816	-0.0177002	0.0290222
3.818	-0.0671387	0.0294495
3.82	-0.00610352	0.0289795
3.822	0.020752	0.029071
3.824	0.012207	0.0290833
3.826	0.0250244	0.0286072
3.828	0.00732422	0.0284363
3.83	0.0421143	0.0288391
3.832	0.00183105	0.0288513
3.834	-0.0170898	0.0285522
3.836	0.00915527	0.0282471
3.838	0.0238037	0.0276672
3.84	0.0592041	0.0279846
3.842	-0.057373	0.0282227
3.844	-0.0585938	0.0287415
3.846	0.010376	0.0287292
3.848	0.0396729	0.0286621
3.85	0.0384521	0.0287659
3.852	-0.0311279	0.0284668
3.854	-0.00793457	0.0282104
3.856	-0.0305176	0.028479
3.858	0.0128174	0.0285461
3.86	0.00976563	0.0284912
3.862	-0.0134277	0.0285461
3.864	0.00854492	0.0284485
3.866	0.0115967	0.028241
3.868	0.0518799	0.0286194
3.87	-0.065918	0.0286865
3.872	-0.032959	0.0289551
3.874	0.0317383	0.029126
3.876	-0.0170898	0.0290955
3.878	0.00305176	0.0289917
3.88	0.022583	0.0291382
3.882	0.0366211	0.0293518
3.884	-0.0939941	0.0296814
3.886	0.0500488	0.029834
3.888	0.0335693	0.0301392
3.89	0.00854492	0.0301086
3.892	0.00610352	0.0298645
3.894	-0.0286865	0.0300537
3.896	-0.0427246	0.0304077
3.898	-0.0238037	0.0305908
3.9	0.0323486	0.0304688
3.902	-0.0335693	0.0306824
3.904	0.00793457	0.0305969
3.906	0.0756836	0.0312195
3.908	-0.0152588	0.0310059
3.91	-0.0280762	0.0310242
3.912	0.0408936	0.0314026
3.914	-0.0195313	0.0313293
3.916	-0.0463867	0.031781
3.918	0.0335693	0.0316345
3.92	-0.0408936	0.0319153
3.922	0.0384521	0.0317932
3.924	0.0500488	0.0321777
3.926	-0.0689697	0.0321167
3.928	-0.00854492	0.0317444
3.93	0.0256348	0.0319702
3.932	0.0201416	0.0319641
3.934	-0.0231934	0.0317017
3.936	-0.057373	0.0319519
3.938	-0.00671387	0.0316772
3.94	-0.0567627	0.031842
3.942	-0.000610352	0.0314514
3.944	0.0750732	0.031842
3.946	0.0189209	0.0312256
3.948	0.0280762	0.0311768
3.95	-0.0506592	0.0314209
3.952	0.012207	0.031427
3.954	0.0280762	0.0309814
3.956	0.0579834	0.0314392
3.958	-0.0421143	0.0315674
3.96	-0.00549316	0.0312561
3.962	-0.0256348	0.0312378
3.964	-0.00854492	0.0307922
3.966	0.000610352	0.0306458
3.968	0.0231934	0.0303589
3.97	0.0372314	0.030011
3.972	0.00488281	0.0299866
3.974	-0.0170898	0.0296936
3.976	0.0170898	0.0291077
3.978	0.0268555	0.0287231
3.98	-0.0134277	0.0276428
3.982	-0.0128174	0.0275696
3.984	0.0335693	0.0273499
3.986	0.0115967	0.0272827
3.988	-0.0592041	0.0276123
3.99	-0.0201416	0.0277405
3.992	0.0109863	0.0277039
3.994	0.00244141	0.0276794
3.996	-0.0579834	0.0278992
3.998	0.03479	0.0281799
4	0.0152588	0.027887
4.002	0.010376	0.0279114
4.004	0.00427246	0.0278564
4.006	0.0164795	0.0279724
4.008	0.0012207	0.027533
4.01	0.0262451	0.0276123
4.012	0.0299072	0.02771
4.014	0.0128174	0.0277283
4.016	-0.0549316	0.0281006
4.018	0.0317383	0.0277466
4.02	-0.043335	0.0281189
4.022	0.0354004	0.0282654
4.024	0.0115967	0.0282593
4.026	0.0341797	0.0283508
4.028	-0.0762939	0.0290405
4.03	0.0421143	0.0290405
4.032	-0.032959	0.0293518
4.034	0.0274658	0.0294556
4.036	0.00915527	0.0294556
4.038	-0.0769043	0.0299866
4.04	0.0317383	0.0297119
4.042	0.00915527	0.0292297
4.044	0.0012207	0.028656
4.046	-0.0231934	0.0287842
4.048	-0.00244141	0.0284119
4.05	0.0335693	0.028363
4.052	0.00244141	0.0280762
4.054	0.045166	0.0284485
4.056	-0.0115967	0.0282593
4.058	-0.010376	0.0282349
4.06	0.0439453	0.0285767
4.062	-0.0244141	0.0286865
4.064	0.0152588	0.0287537
4.066	-0.00366211	0.0286743
4.068	0.0238037	0.0283936
4.07	-0.0354004	0.0280884
4.072	0.0183105	0.0279419
4.074	-0.0262451	0.027887
4.076	-0.0134277	0.0278503
4.078	0.0286865	0.0281067
4.08	0.0146484	0.0280273
4.082	0.0109863	0.027771
4.084	-0.0109863	0.0269409
4.086	0.0146484	0.0265869
4.088	-0.00183105	0.0262695
4.09	0.0268555	0.0264526
4.092	-0.0140381	0.026532
4.094	0.0341797	0.0265869
4.096	0	0.0261597
4.098	-0.0109863	0.0260315
4.1	-0.022583	0.0259338
4.102	0.000610352	0.0256042
4.104	-0.0396729	0.0259216
4.106	0.010376	0.0252686
4.108	0.0384521	0.0255005
4.11	-0.0506592	0.0257263
4.112	0.032959	0.025647
4.114	-0.067749	0.0261292
4.116	0.0402832	0.0260681
4.118	0.00976563	0.0258301
4.12	-0.010376	0.0255249
4.122	-0.0109863	0.0252502
4.124	0.0244141	0.0249939
4.126	0.032959	0.0246338
4.128	-0.0286865	0.0248352
4.13	0.0268555	0.0248474
4.132	0.0201416	0.0248474
4.134	-0.0115967	0.0247314
4.136	0.0335693	0.0244934
4.138	0.0317383	0.0247437
4.14	-0.00610352	0.0242371
4.142	-0.0354004	0.024585
4.144	-0.00610352	0.0238953
4.146	0.0012207	0.0237183
4.148	0	0.0234375
4.15	-0.00915527	0.0230225
4.152	0.00366211	0.022937
4.154	0.00366211	0.0226929
4.156	0.00488281	0.0221619
4.158	0.0128174	0.0218689
4.16	-0.0653076	0.022467
4.162	0.00488281	0.0222595
4.164	0.0531006	0.0227051
4.166	0.000610352	0.0227051
4.168	-0.012207	0.0225952
4.17	-0.0341797	0.0225647
4.172	-0.010376	0.0226196
4.174	0.0506592	0.0229553
4.176	-0.00183105	0.0228027
4.178	0.0170898	0.0227051
4.18	0.0762939	0.0233337
4.182	-0.00244141	0.02323
4.184	-0.0372314	0.0232666
4.186	0.0439453	0.0235901
4.188	0.0146484	0.0231445
4.19	-0.0164795	0.0231079
4.192	0.0238037	0.0232361
4.194	-0.0744629	0.0239563
4.196	-0.0268555	0.023645
4.198	-0.032959	0.0236267
4.2	-0.00488281	0.0235229
4.202	0.0152588	0.0235718
4.204	-0.0109863	0.0236389
4.206	-0.0305176	0.0237793
4.208	0.0366211	0.0241333
4.21	0.0140381	0.0240112
4.212	0.0189209	0.0239014
4.214	-0.00793457	0.0238525
4.216	0.00549316	0.0233582
4.218	-0.00732422	0.023114
4.22	-0.00976563	0.0227783
4.222	-0.00305176	0.0224548
4.224	0.00244141	0.0223633
4.226	-0.0140381	0.0221619
4.228	0.0262451	0.0216614
4.23	-0.0238037	0.0214783
4.232	-0.0109863	0.0212585
4.234	0.0427246	0.0214111
4.236	0.0396729	0.0217163
4.238	-0.0421143	0.0213684
4.24	-0.0311279	0.0213623
4.242	-0.00915527	0.0213623
4.244	0.0421143	0.0217712
4.246	-0.0213623	0.0217529
4.248	0.0384521	0.022113
4.25	-0.000610352	0.0217834
4.252	-0.0305176	0.0220642
4.254	0.032959	0.0219421
4.256	0.0152588	0.0219788
4.258	0.0134277	0.0220093
4.26	-0.0378418	0.0219482
4.262	-0.00732422	0.0217773
4.264	0.0134277	0.021759
4.266	-0.00244141	0.0217468
4.268	0.0506592	0.0220154
4.27	0.0457764	0.0221191
4.272	-0.0811768	0.0227478
4.274	0.0732422	0.0232178
4.276	-0.0421143	0.0235046
4.278	-0.0158691	0.0233765
4.28	0.0372314	0.0236023
4.282	0.0244141	0.0237366
4.284	-0.0146484	0.0237732
4.286	-0.0604248	0.024231
4.288	0.00915527	0.0243042
4.29	0.03479	0.0243835
4.292	-0.0219727	0.0244629
4.294	0.00244141	0.0241455
4.296	-0.0372314	0.0245178
4.298	0.00244141	0.0244324
4.3	-0.0140381	0.0243469
4.302	-0.0280762	0.0246216
4.304	0.0183105	0.024408
4.306	-0.0164795	0.024469
4.308	0.012207	0.0242065
4.31	-0.0299072	0.023999
4.312	0.0152588	0.023822
4.314	-0.03479	0.0234924
4.316	0.00915527	0.0231812
4.318	0.00549316	0.0231384
4.32	0.00732422	0.0231079
4.322	0.00793457	0.0230774
4.324	0.0158691	0.0229919
4.326	-0.0012207	0.0226746
4.328	0.0268555	0.0226562
4.33	0	0.0223877
4.332	0.0457764	0.022644
4.334	0.0708008	0.0232361
4.336	-0.0549316	0.0234497
4.338	-0.0012207	0.0231445
4.34	0.043335	0.0235168
4.342	-0.0469971	0.0236328
4.344	0.00183105	0.0235901
4.346	-0.0170898	0.0237488
4.348	0.0128174	0.023877
4.35	-0.00976563	0.0238831
4.352	0.0616455	0.0244629
4.354	0.0366211	0.0247925
4.356	-0.0421143	0.0251648
4.358	-0.0256348	0.025293
4.36	0.0201416	0.0248413
4.362	0.067749	0.02547
4.364	-0.0250244	0.0251892
4.366	-0.0585938	0.025769
4.368	-0.0109863	0.0257568
4.37	-0.0646973	0.026062
4.372	-0.0305176	0.0262634
4.374	0.0488281	0.0262451
4.376	-0.00854492	0.0263123
4.378	-0.0335693	0.0264771
4.38	-0.0280762	0.0259949
4.382	0.00366211	0.0260071
4.384	0.00305176	0.0256653
4.386	0.0231934	0.0254578
4.388	0.0134277	0.0254456
4.39	0.0170898	0.0254517
4.392	0.0109863	0.0253235
4.394	0.00549316	0.0246338
4.396	0.00305176	0.0243958
4.398	0.020752	0.0242737
4.4	0.0146484	0.0243713
4.402	0.0292969	0.0245117
4.404	-0.0549316	0.0249512
4.406	0.0189209	0.0248352
4.408	0.0238037	0.024707
4.41	0.0140381	0.024707
4.412	-0.0579834	0.0250977
4.414	0.0164795	0.0251831
4.416	0.0183105	0.0253113
4.418	-0.0378418	0.0256165
4.42	-0.0360107	0.0258789
4.422	0.0146484	0.0259949
4.424	0.00549316	0.0260254
4.426	0.0372314	0.0262573
4.428	0.0506592	0.0265015
4.43	0.0445557	0.026709
4.432	-0.0140381	0.0267395
4.434	0.00427246	0.026355
4.436	0.00610352	0.0260193
4.438	0.0262451	0.0258606
4.44	0.00610352	0.0256104
4.442	-0.0524902	0.0260437
4.444	-0.00671387	0.0256897
4.446	-0.0262451	0.0257385
4.448	0.0482178	0.0258362
4.45	-0.00915527	0.0259216
4.452	-0.0427246	0.0260437
4.454	0.0640869	0.026355
4.456	-0.00549316	0.0262573
4.458	0.0280762	0.0264038
4.46	0.0152588	0.026178
4.462	0.00488281	0.0261536
4.464	-0.0299072	0.0263184
4.466	-0.00549316	0.0263489
4.468	0.0610352	0.0264526
4.47	-0.00610352	0.0260559
4.472	0.0378418	0.0256226
4.474	-0.0427246	0.0253174
4.476	-0.0482178	0.0253784
4.478	-0.00793457	0.0252991
4.48	-0.0268555	0.0251953
4.482	-0.03479	0.0252991
4.484	-0.00549316	0.0252075
4.486	0.0170898	0.0247742
4.488	-0.0543213	0.0252258
4.49	-0.032959	0.0252075
4.492	0.0445557	0.0254333
4.494	0.0286865	0.0256958
4.496	0.0292969	0.0256165
4.498	0.0219727	0.0258118
4.5	0.0158691	0.0258301
4.502	-0.0256348	0.0258057
4.504	-0.03479	0.0259705
4.506	0.0537109	0.0263428
4.508	-0.00732422	0.0262939
4.51	-0.0292969	0.0262878
4.512	-0.0238037	0.0263733
4.514	0.0115967	0.0261414
4.516	0.00366211	0.0260864
4.518	0.00244141	0.0260559
4.52	0.0341797	0.0263245
4.522	0.0274658	0.0265198
4.524	0.0189209	0.0265503
4.526	0.0158691	0.0266968
4.528	0.0158691	0.0265869
4.53	-0.0109863	0.0266968
4.532	-0.00732422	0.0263123
4.534	0.00854492	0.0256897
4.536	-0.0268555	0.0254089
4.538	-0.00854492	0.0254822
4.54	-0.0317383	0.0253662
4.542	-0.00793457	0.0249756
4.544	0.0518799	0.0254761
4.546	-0.0274658	0.0255798
4.548	0.0238037	0.0256897
4.55	-0.00305176	0.0256226
4.552	0.0378418	0.0253845
4.554	0.00732422	0.0250916
4.556	0.0177002	0.0248474
4.558	-0.0421143	0.0250122
4.56	0.0170898	0.0249817
4.562	0.0177002	0.0244812
4.564	-0.0463867	0.0246948
4.566	-0.0378418	0.0244873
4.568	0.0250244	0.0246277
4.57	0.010376	0.0240845
4.572	-0.0836182	0.0246155
4.574	0.00854492	0.0242126
4.576	0.0482178	0.0246094
4.578	-0.00610352	0.0243347
4.58	0.00183105	0.0240723
4.582	-0.0292969	0.0243286
4.584	0.0567627	0.0248657
4.586	0.0292969	0.0249268
4.588	-0.00671387	0.0248596
4.59	0.0396729	0.0250854
4.592	0.0476074	0.0254517
4.594	-0.0634766	0.0260315
4.596	0.0140381	0.0261414
4.598	0.0183105	0.0261169
4.6	0.00244141	0.0259949
4.602	0.00793457	0.0257813
4.604	0.00915527	0.0253235
4.606	-0.0305176	0.0254395
4.608	0.0427246	0.0256287
4.61	-0.00915527	0.0255798
4.612	-0.0231934	0.0252319
4.614	-0.012207	0.0251892
4.616	0.0317383	0.0253235
4.618	0	0.0249451
4.62	-0.00976563	0.0246826
4.622	-0.00854492	0.0246216
4.624	-0.0134277	0.0247009
4.626	-0.0158691	0.0244873
4.628	0.00915527	0.0240723
4.63	0.00244141	0.0236511
4.632	-0.0183105	0.0236938
4.634	-0.0366211	0.0240173
4.636	0.0244141	0.0242004
4.638	-0.03479	0.0242859
4.64	0.0128174	0.024353
4.642	-0.0463867	0.024292
4.644	0	0.0242249
4.646	0.0262451	0.0242249
4.648	-0.00244141	0.0237671
4.65	-0.012207	0.0237976
4.652	-0.0183105	0.0235535
4.654	-0.00366211	0.0229492
4.656	0.0848389	0.0237427
4.658	0.00671387	0.0235291
4.66	0.0366211	0.0237427
4.662	0.0390625	0.0240845
4.664	0.0274658	0.0240601
4.666	-0.045166	0.0244568
4.668	0.03479	0.0241943
4.67	0.0128174	0.0242615
4.672	-0.0543213	0.0244263
4.674	0	0.023999
4.676	-0.0726318	0.0242432
4.678	-0.0219727	0.0243835
4.68	0.0201416	0.0243164
4.682	0.00915527	0.0240601
4.684	0.0244141	0.0242493
4.686	-0.00488281	0.0241272
4.688	-0.0482178	0.0240662
4.69	0.0372314	0.0241089
4.692	0.0250244	0.0239136
4.694	0.0177002	0.0238037
4.696	-0.0354004	0.0238647
4.698	-0.0494385	0.0241394
4.7	0.0280762	0.0242615
4.702	-0.0195313	0.0242004
4.704	0.045166	0.0243042
4.706	-0.0286865	0.024054
4.708	-0.0219727	0.0242004
4.71	-0.000610352	0.0239136
4.712	0.0115967	0.0237915
4.714	0.0274658	0.0239502
4.716	-0.0592041	0.0245056
4.718	0.0189209	0.0246704
4.72	0.00549316	0.0243835
4.722	0.0299072	0.024408
4.724	0.00244141	0.0242432
4.726	0.0372314	0.0244568
4.728	-0.0354004	0.0246521
4.73	-0.022583	0.0247681
4.732	0.043335	0.0251282
4.734	0.00671387	0.0251099
4.736	-0.0274658	0.025116
4.738	-0.0500488	0.025531
4.74	0.0231934	0.0254456
4.742	0.0598145	0.0259644
4.744	0.0170898	0.0256165
4.746	0.0524902	0.0258667
4.748	-0.0152588	0.0257813
4.75	0.020752	0.0259583
4.752	-0.0378418	0.0259583
4.754	0.067749	0.0265625
4.756	0.00366211	0.0264221
4.758	-0.045166	0.0264526
4.76	-0.0518799	0.0268005
4.762	-0.0274658	0.0268982
4.764	0.0231934	0.0266663
4.766	-0.020752	0.0264954
4.768	0.00976563	0.0263428
4.77	-0.0280762	0.0265198
4.772	0.0158691	0.0258423
4.774	0.0183105	0.0259399
4.776	0.020752	0.0256653
4.778	-0.03479	0.0259521
4.78	0.020752	0.0261414
4.782	0.0469971	0.0263184
4.784	0.0299072	0.0260498
4.786	-0.00793457	0.0258362
4.788	-0.0152588	0.0259216
4.79	-0.00366211	0.0255615
4.792	-0.0158691	0.0252441
4.794	0.0250244	0.0248596
4.796	0.00671387	0.0247864
4.798	-0.0164795	0.0247681
4.8	-0.00854492	0.0248291
4.802	-0.0134277	0.024884
4.804	0.0213623	0.0250061
4.806	0.0299072	0.025
4.808	-0.0152588	0.0247253
4.81	0.0195313	0.0248291
4.812	0.0134277	0.0247314
4.814	-0.03479	0.0249573
4.816	-0.00915527	0.0247314
4.818	0.020752	0.024939
4.82	-0.0201416	0.0250427
4.822	0.0317383	0.0252747
4.824	-0.0335693	0.0254761
4.826	0.0219727	0.0255371
4.828	0.0421143	0.0258667
4.83	0.00183105	0.0258606
4.832	-0.0360107	0.0260376
4.834	0.0457764	0.0261292
4.836	0.000610352	0.0258911
4.838	-0.0292969	0.0258362
4.84	-0.0256348	0.0259644
4.842	-0.0335693	0.0258362
4.844	0.010376	0.0259399
4.846	-0.0134277	0.0258118
4.848	-0.0317383	0.0261047
4.85	-0.00427246	0.0260254
4.852	0.0109863	0.0259521
4.854	0.00549316	0.0259705
4.856	0.00305176	0.0251526
4.858	0.00915527	0.025177
4.86	0.0109863	0.0249207
4.862	-0.0140381	0.0246704
4.864	-0.0219727	0.0246155
4.866	0.0213623	0.0243774
4.868	-0.00549316	0.0240845
4.87	0.00793457	0.0240356
4.872	-0.0231934	0.0237244
4.874	0.03479	0.0240723
4.876	-0.022583	0.0235718
4.878	0.0396729	0.0237488
4.88	0.0402832	0.0239502
4.882	-0.00976563	0.0239563
4.884	0.0109863	0.023822
4.886	0.00244141	0.0237976
4.888	-0.00366211	0.0233521
4.89	0.0177002	0.0231567
4.892	0.0256348	0.0231628
4.894	-0.0622559	0.0236084
4.896	-0.0457764	0.0237122
4.898	0.0134277	0.0233521
4.9	-0.0299072	0.0233704
4.902	0.0299072	0.0234741
4.904	0.0518799	0.0235413
4.906	-0.0323486	0.0235779
4.908	0.0134277	0.0234924
4.91	0.00793457	0.0235657
4.912	0.0268555	0.0237183
4.914	0.0109863	0.0235535
4.916	0.0292969	0.0232544
4.918	-0.0732422	0.0237976
4.92	-0.0152588	0.0238953
4.922	0.0244141	0.0238403
4.924	0.0219727	0.0240356
4.926	-0.00305176	0.0236938
4.928	-0.0231934	0.0235718
4.93	-0.0183105	0.0235291
4.932	0.00732422	0.0231689
4.934	-0.00915527	0.0231934
4.936	-0.0396729	0.0233154
4.938	-0.00671387	0.0228821
4.94	-0.032959	0.0229797
4.942	-0.0378418	0.02276
4.944	0.0134277	0.0227234
4.946	0.0189209	0.0223877
4.948	-0.0152588	0.0223877
4.95	0.0140381	0.0223206
4.952	0.0128174	0.0220703
4.954	0.012207	0.0215149
4.956	0.000610352	0.0214844
4.958	0.00549316	0.0210876
4.96	0.0396729	0.0209656
4.962	0.00915527	0.0207825
4.964	-0.0262451	0.020813
4.966	0.045166	0.0210571
4.968	0.0231934	0.0211914
4.97	0.000610352	0.0209167
4.972	-0.00915527	0.0208496
4.974	0.010376	0.0207703
4.976	0.0244141	0.0208069
4.978	-0.0469971	0.020929
4.98	0.00183105	0.0207397
4.982	0.0616455	0.0208862
4.984	-0.00854492	0.0206726
4.986	-0.0579834	0.0211731
4.988	0.0280762	0.0213013
4.99	-0.00915527	0.0213562
4.992	0.0134277	0.0213318
4.994	0.0152588	0.0212341
4.996	-0.0109863	0.0212769
4.998	-0.03479	0.02146
5	0.0219727	0.0215942
5.002	-0.0335693	0.0217957
5.004	0.00427246	0.0216248
5.006	-0.00549316	0.0213806
5.008	-0.020752	0.0214355
5.01	-0.0244141	0.0214844
5.012	-0.0219727	0.0215698
5.014	0.00976563	0.0213196
5.016	0.0396729	0.0216248
5.018	0.0238037	0.0216553
5.02	-0.0201416	0.0216553
5.022	0.0250244	0.0215881
5.024	0.00305176	0.021283
5.026	0.00976563	0.0211609
5.028	-0.00366211	0.0207764
5.03	-0.000610352	0.0207642
5.032	-0.0115967	0.02052
5.034	-0.00976563	0.0201599
5.036	-0.00854492	0.0202393
5.038	0.0134277	0.0200806
5.04	0.000610352	0.0198303
5.042	0.00671387	0.0195618
5.044	-0.0250244	0.0197083
5.046	0.010376	0.0196777
5.048	0.00976563	0.019458
5.05	0.00915527	0.0195068
5.052	0.00183105	0.0194153
5.054	-0.0177002	0.0195374
5.056	0.00610352	0.0195679
5.058	0.0183105	0.0196594
5.06	-0.0152588	0.0197021
5.062	-0.020752	0.0197693
5.064	0.0787354	0.0203369
5.066	-0.0610352	0.0207336
5.068	0.0146484	0.0208252
5.07	0.0177002	0.0209229
5.072	-0.0476074	0.021167
5.074	0.0360107	0.0211792
5.076	0.020752	0.0211609
5.078	-0.0469971	0.0212341
5.08	0.0158691	0.02099
5.082	-0.0012207	0.0209045
5.084	-0.0299072	0.0210938
5.086	-0.00244141	0.0210938
5.088	0.065918	0.0217163
5.09	-0.00427246	0.021582
5.092	-0.045166	0.0217773
5.094	0.0250244	0.021405
5.096	0.0378418	0.0213257
5.098	-0.0109863	0.0213013
5.1	-0.0170898	0.0211731
5.102	0.00366211	0.0209106
5.104	0.0280762	0.0206726
5.106	-0.0482178	0.0208313
5.108	-0.0579834	0.0212769
5.11	0.0317383	0.0215149
5.112	0.0195313	0.0214417
5.114	0.00244141	0.0213562
5.116	0.0512695	0.0215759
5.118	-0.0262451	0.021106
5.12	0.00671387	0.0210205
5.122	0.00427246	0.0208191
5.124	0.0170898	0.0207703
5.126	0.0231934	0.0209717
5.128	0.00244141	0.0207642
5.13	-0.0213623	0.0207947
5.132	-0.0250244	0.0209717
5.134	0.00671387	0.0209473
5.136	-0.0115967	0.0206665
5.138	-0.0158691	0.0207581
5.14	-0.00183105	0.0204468
5.142	0.0506592	0.020575
5.144	-0.0299072	0.0207397
5.146	-0.0378418	0.020929
5.148	0.0305176	0.0210815
5.15	0.0476074	0.0214172
5.152	0.0152588	0.0214417
5.154	-0.043335	0.0217529
5.156	0.0421143	0.022168
5.158	-0.00549316	0.022168
5.16	-0.0482178	0.0222534
5.162	0.0189209	0.0223511
5.164	0.0311279	0.0223999
5.166	-0.0158691	0.0221069
5.168	0.0238037	0.022113
5.17	-0.0463867	0.0225708
5.172	-0.00427246	0.022522
5.174	0.00793457	0.0224976
5.176	0.012207	0.0223755
5.178	-0.00549316	0.0219604
5.18	-0.00732422	0.0220154
5.182	-0.00915527	0.0214905
5.184	0.020752	0.0216125
5.186	0.0164795	0.0211975
5.188	0.0543213	0.02146
5.19	0.0146484	0.0215149
5.192	0.00366211	0.0214172
5.194	-0.0372314	0.021637
5.196	0.0653076	0.0221802
5.198	-0.0268555	0.0221008
5.2	-0.0115967	0.0219971
5.202	-0.0317383	0.0219788
5.204	0.00549316	0.021991
5.206	-0.0128174	0.0220642
5.208	0.0286865	0.0221436
5.21	-0.0274658	0.0221741
5.212	0.0128174	0.0220825
5.214	-0.00732422	0.0220581
5.216	-0.00915527	0.0217529
5.218	0.0256348	0.0217712
5.22	-0.012207	0.0216919
5.222	-0.0317383	0.021759
5.224	0.0109863	0.0218384
5.226	0.0256348	0.0219971
5.228	-0.00732422	0.0220337
5.23	-0.0250244	0.0222778
5.232	0.0012207	0.0221741
5.234	-0.00976563	0.0221741
5.236	0.0311279	0.0223999
5.238	0.032959	0.0225952
5.24	-0.0189209	0.0227783
5.242	-0.0616455	0.0233276
5.244	0.0408936	0.0234863
5.246	0.0317383	0.0237
5.248	-0.0164795	0.0237671
5.25	0.00976563	0.0237732
5.252	0.0231934	0.0239868
5.254	-0.0195313	0.0240051
5.256	0.0708008	0.0246521
5.258	-0.0415039	0.024884
5.26	-0.010376	0.0248352
5.262	0.043335	0.025061
5.264	-0.00488281	0.0243225
5.266	-0.0396729	0.0241089
5.268	-0.032959	0.024292
5.27	0.00305176	0.0241455
5.272	-0.00793457	0.0237488
5.274	-0.0274658	0.0236633
5.276	-0.00549316	0.0235107
5.278	-0.0250244	0.023291
5.28	0.0311279	0.0234436
5.282	0.0195313	0.0236267
5.284	-0.00549316	0.0233826
5.286	-0.0158691	0.0235168
5.288	0.00915527	0.0229492
5.29	0.0665283	0.0235718
5.292	-0.00732422	0.0231934
5.294	0.00671387	0.0230103
5.296	0.032959	0.0229614
5.298	0.000610352	0.0228577
5.3	0.0201416	0.0228882
5.302	0.0457764	0.0233093
5.304	0.0128174	0.0231567
5.306	0.0244141	0.0229187
5.308	-0.00671387	0.022406
5.31	-0.0396729	0.0224854
5.312	-0.012207	0.0224121
5.314	-0.0146484	0.0225342
5.316	-0.00732422	0.0220947
5.318	-0.0372314	0.0222046
5.32	-0.0567627	0.0227051
5.322	-0.0408936	0.0230713
5.324	-0.0219727	0.0231201
5.326	0.00671387	0.0229553
5.328	0.0134277	0.0230652
5.33	-0.0787354	0.0236389
5.332	-0.0378418	0.0237671
5.334	0.010376	0.0238037
5.336	-0.0177002	0.0238647
5.338	-0.0201416	0.0239075
5.34	-0.022583	0.024115
5.342	-0.0738525	0.0243469
5.344	-0.0653076	0.0247009
5.346	-0.00854492	0.024408
5.348	0.0152588	0.0242554
5.35	-0.0567627	0.0243469
5.352	-0.03479	0.0245422
5.354	0.000610352	0.024115
5.356	-0.00610352	0.0237549
5.358	-0.043335	0.0241333
5.36	0.010376	0.0237549
5.362	0.012207	0.0236877
5.364	-0.0256348	0.0236328
5.366	0.0128174	0.0236023
5.368	0.0201416	0.0235657
5.37	-0.0195313	0.0232971
5.372	0.0323486	0.0235779
5.374	0.170898	0.0252075
5.376	0.0701904	0.0257874
5.378	-0.109253	0.026825
5.38	0.0238037	0.0269897
5.382	0.00976563	0.0269958
5.384	0.0384521	0.0271729
5.386	-0.0311279	0.0273193
5.388	-0.112915	0.0279053
5.39	-0.0256348	0.0280151
5.392	-0.0708008	0.0286865
5.394	-0.022583	0.02854
5.396	-0.0305176	0.0281921
5.398	-0.0274658	0.0281982
5.4	-0.0518799	0.0286011
5.402	-0.0152588	0.0284363
5.404	-0.0311279	0.0286926
5.406	-0.0360107	0.0289246
5.408	0.0262451	0.0289001
5.41	0.00732422	0.0286987
5.412	0.0134277	0.0287048
5.414	0.0219727	0.0288513
5.416	0.0238037	0.0289978
5.418	0.012207	0.0288635
5.42	-0.0244141	0.0289856
5.422	0.00305176	0.0286987
5.424	-0.0012207	0.0286011
5.426	0.00427246	0.0283875
5.428	0.0012207	0.0283264
5.43	-0.00305176	0.0281067
5.432	0.00793457	0.0281738
5.434	0.010376	0.0281799
5.436	0.0372314	0.028241
5.438	0.020752	0.0281189
5.44	0.0445557	0.0283752
5.442	0.0360107	0.0281189
5.444	-0.03479	0.0280579
5.446	0.0506592	0.0282471
5.448	0.032959	0.0284119
5.45	-0.000610352	0.0283203
5.452	-0.0286865	0.0283752
5.454	0.00305176	0.0282104
5.456	-0.0195313	0.0276978
5.458	-0.00305176	0.0273132
5.46	0.00427246	0.0272522
5.462	0.00671387	0.026886
5.464	0.0219727	0.0270569
5.466	0.0238037	0.0268982
5.468	0.0415039	0.0269836
5.47	0.0476074	0.0274292
5.472	0.0177002	0.0275269
5.474	0.032959	0.0275818
5.476	0.0256348	0.0277832
5.478	0.020752	0.0277405
5.48	0.0317383	0.0277466
5.482	0.0109863	0.0276611
5.484	0.0201416	0.0278076
5.486	0.0195313	0.0278442
5.488	0.0268555	0.0280212
5.49	0.0256348	0.0276123
5.492	0.0219727	0.0277588
5.494	0.0250244	0.0279419
5.496	0.0164795	0.0277771
5.498	0.0244141	0.0280151
5.5	0.0323486	0.0281372
5.502	0.03479	0.0280273
5.504	0.0201416	0.0281006
5.506	0.0299072	0.0281555
5.508	0.0341797	0.0284302
5.51	0.0244141	0.0282776
5.512	0.0189209	0.0283447
5.514	0.0518799	0.028717
5.516	0.0189209	0.028833
5.518	0.0274658	0.0287354
5.52	0.00427246	0.0282104
5.522	0.0323486	0.028125
5.524	0.0213623	0.0281189
5.526	0.022583	0.0282776
5.528	0.0177002	0.0283203
5.53	0.0317383	0.0278503
5.532	0.0115967	0.0275879
5.534	0.0280762	0.0277649
5.536	0.0408936	0.0279968
5.538	0.0231934	0.0280273
5.54	0.0195313	0.0279968
5.542	0.00915527	0.0273499
5.544	0.0317383	0.0270142
5.546	0.00732422	0.027002
5.548	0.010376	0.0269531
5.55	-0.00976563	0.0264832
5.552	0.0158691	0.0262939
5.554	0.0177002	0.0264648
5.556	0.00244141	0.0264282
5.558	0.00854492	0.0260803
5.56	0.0146484	0.026123
5.562	0.0128174	0.0261292
5.564	-0.0012207	0.025885
5.566	0.00854492	0.0258423
5.568	0.0427246	0.0260681
5.57	0.0195313	0.0260681
5.572	-0.0140381	0.025885
5.574	0.0213623	0.0243896
5.576	0.0109863	0.0237976
5.578	0.0292969	0.022998
5.58	0.00244141	0.0227844
5.582	0.00488281	0.0227356
5.584	0.00671387	0.0224182
5.586	0.00793457	0.0221863
5.588	0.0189209	0.0212463
5.59	0.010376	0.0210938
5.592	-0.00305176	0.0204163
5.594	0.00671387	0.0202576
5.596	0.0109863	0.0200623
5.598	0.020752	0.0199951
5.6	0.0115967	0.0195923
5.602	-0.00610352	0.0195007
5.604	-0.00366211	0.0192261
5.606	0.0378418	0.0192444
5.608	0	0.0189819
5.61	0.0164795	0.0190735
5.612	0.00732422	0.0190125
5.614	0.0201416	0.0189941
5.616	-0.0152588	0.0189087
5.618	0.00488281	0.0188354
5.62	0.00915527	0.0186829
5.622	0.043335	0.0190857
5.624	-0.0305176	0.0193787
5.626	0.00915527	0.0194275
5.628	-0.0134277	0.0195496
5.63	0.000610352	0.0195251
5.632	0.0280762	0.0197266
5.634	-0.00671387	0.0196899
5.636	-0.0170898	0.0194885
5.638	-0.0012207	0.0192932
5.64	0.0109863	0.0189575
5.642	0.0384521	0.0189819
5.644	0.00793457	0.0187134
5.646	-0.0195313	0.0184021
5.648	0.000610352	0.0180786
5.65	0.0274658	0.0183472
5.652	0.0146484	0.0182068
5.654	-0.00793457	0.0182556
5.656	0.00915527	0.0181519
5.658	0.00732422	0.0181946
5.66	-0.022583	0.0183777
5.662	0.0177002	0.0184875
5.664	0.00915527	0.0183594
5.666	0.00793457	0.0182007
5.668	-0.00488281	0.0178345
5.67	-0.0219727	0.0175781
5.672	-0.0323486	0.0177246
5.674	0.0170898	0.0175659
5.676	0.0268555	0.0175781
5.678	-0.0213623	0.0175842
5.68	0.00610352	0.0173279
5.682	0.010376	0.0173218
5.684	0.00488281	0.0171692
5.686	0.0134277	0.0171082
5.688	0.0146484	0.0169861
5.69	0.00427246	0.0167725
5.692	-0.00427246	0.0165955
5.694	-0.0177002	0.0165222
5.696	0	0.0163574
5.698	0.00244141	0.0161377
5.7	-0.00854492	0.0158997
5.702	-0.00732422	0.015625
5.704	-0.00427246	0.0154663
5.706	0.0128174	0.0152954
5.708	0.00610352	0.0150146
5.71	0.0415039	0.0151855
5.712	0.0213623	0.01521
5.714	-0.00976563	0.0147888
5.716	-0.0213623	0.0148132
5.718	0.0274658	0.0148132
5.72	0.00244141	0.0147949
5.722	-0.00854492	0.0145569
5.724	-0.010376	0.014447
5.726	-0.0396729	0.0146179
5.728	-0.0256348	0.0146973
5.73	0.0231934	0.0146118
5.732	-0.00610352	0.0145569
5.734	0.00427246	0.0143188
5.736	0.00671387	0.0139771
5.738	0.012207	0.0138672
5.74	-0.0518799	0.0141907
5.742	0.0512695	0.0146118
5.744	0.0372314	0.0146667
5.746	0.00976563	0.0146912
5.748	-0.0012207	0.0145996
5.75	-0.00244141	0.0145264
5.752	0.032959	0.0146973
5.754	0.00793457	0.0145996
5.756	0.0012207	0.0145874
5.758	0.020752	0.0147095
5.76	-0.00183105	0.0145813
5.762	-0.00854492	0.0145386
5.764	-0.0195313	0.0147217
5.766	-0.0360107	0.0149963
5.768	-0.00366211	0.0146057
5.77	-0.00244141	0.0144348
5.772	-0.00793457	0.0143738
5.774	0.000610352	0.0141663
5.776	-0.0415039	0.0144714
5.778	0.00244141	0.0142029
5.78	0.0738525	0.014917
5.782	0.00183105	0.0148865
5.784	0.0164795	0.0149841
5.786	0.0286865	0.0151917
5.788	0.0183105	0.0151855
5.79	0.0238037	0.0153198
5.792	0.0195313	0.0154846
5.794	0.0146484	0.015564
5.796	0.00183105	0.0154724
5.798	-0.0146484	0.0154114
5.8	0.0256348	0.0155518
5.802	0.00610352	0.0155518
5.804	-0.00244141	0.0155396
5.806	0.00244141	0.0151855
5.808	0.0164795	0.0153503
5.81	0	0.0151855
5.812	-0.0109863	0.0152222
5.814	0.0543213	0.015564
5.816	-0.00915527	0.0155029
5.818	0.010376	0.0155579
5.82	0.0183105	0.0156494
5.822	0.0201416	0.0154175
5.824	0.00793457	0.0151917
5.826	0.0128174	0.0152283
5.828	0.0195313	0.0152893
5.83	0.0201416	0.0154846
5.832	-0.00244141	0.0152283
5.834	-0.00305176	0.0151917
5.836	0.022583	0.0152466
5.838	0.020752	0.0154419
5.84	-0.00488281	0.0153809
5.842	0.0280762	0.0152771
5.844	0.0164795	0.0153625
5.846	-0.0012207	0.0151794
5.848	0.0268555	0.0154419
5.85	0.00305176	0.0151978
5.852	0.0262451	0.0153137
5.854	-0.00366211	0.015271
5.856	-0.0280762	0.0154602
5.858	-0.00610352	0.015448
5.86	0.0317383	0.0155396
5.862	0.00183105	0.0153809
5.864	-0.0158691	0.015448
5.866	-0.0115967	0.0154846
5.868	0.0244141	0.0156799
5.87	0.0134277	0.0155945
5.872	0.0354004	0.015625
5.874	0.0109863	0.015564
5.876	0.032959	0.015625
5.878	-0.0152588	0.015564
5.88	0.0244141	0.0157471
5.882	0.0152588	0.0157959
5.884	-0.0012207	0.0157593
5.886	0.0152588	0.0157776
5.888	-0.00549316	0.015686
5.89	-0.0012207	0.0156555
5.892	0.00915527	0.0157043
5.894	0.00549316	0.0155823
5.896	0.0012207	0.0155945
5.898	0.00793457	0.0156494
5.9	0.00732422	0.0156372
5.902	0.00183105	0.0155823
5.904	-0.0158691	0.0156982
5.906	0.00610352	0.0156311
5.908	0.0140381	0.0157104
5.91	-0.00610352	0.0153564
5.912	-0.0128174	0.015271
5.914	-0.0177002	0.0153503
5.916	-0.00244141	0.0151611
5.918	0	0.0148865
5.92	0.0164795	0.0150269
5.922	-0.00732422	0.0150146
5.924	-0.0158691	0.0150696
5.926	0.032959	0.0150024
5.928	-0.0012207	0.0147583
5.93	0.00793457	0.0146057
5.932	-0.0128174	0.0146729
5.934	0.00671387	0.0146973
5.936	0.00244141	0.0146545
5.938	-0.00793457	0.0146118
5.94	-0.0152588	0.0142456
5.942	0.00854492	0.0138184
5.944	-0.00549316	0.013501
5.946	0.00671387	0.0134705
5.948	-0.0012207	0.0134705
5.95	0.0177002	0.013623
5.952	-0.00427246	0.0133362
5.954	-0.00793457	0.0133362
5.956	0.00793457	0.0134033
5.958	0	0.0131958
5.96	-0.00671387	0.0132446
5.962	-0.0012207	0.0131714
5.964	-0.00488281	0.0130249
5.966	0	0.0126648
5.968	0.00610352	0.0126892
5.97	0.00915527	0.0127563
5.972	0.00488281	0.0127258
5.974	0.012207	0.0128418
5.976	0.0109863	0.0125366
5.978	0.0152588	0.0126648
5.98	-0.00488281	0.0119751
5.982	0.0292969	0.0122498
5.984	0.010376	0.0121887
5.986	0.00244141	0.0119263
5.988	-0.0012207	0.0117554
5.99	-0.0012207	0.0115295
5.992	-0.0012207	0.0113464
5.994	0.00427246	0.0112427
5.996	0.00183105	0.0112427
5.998	-0.00305176	0.0111267
6	-0.0146484	0.0110168
6.002	0.00732422	0.0110291
6.004	0.0128174	0.0111328
6.006	0.00610352	0.0111694
6.008	-0.0250244	0.0112549
6.01	-0.0152588	0.0114075
6.012	0.0469971	0.0117676
6.014	-0.0238037	0.0114624
6.016	-0.00915527	0.0114624
6.018	0.00793457	0.011438
6.02	-0.0170898	0.0114258
6.022	-0.00488281	0.0112732
6.024	0.00976563	0.0112915
6.026	0.0195313	0.0113586
6.028	-0.0469971	0.0116333
6.03	-0.00793457	0.0115112
6.032	-0.00671387	0.011554
6.034	0.0146484	0.0116699
6.036	0.00854492	0.0115295
6.038	-0.0140381	0.0114624
6.04	-0.0164795	0.0115784
6.042	0.0268555	0.0115662
6.044	0.0170898	0.0115723
6.046	0.00244141	0.0115845
6.048	-0.00244141	0.0113403
6.05	0	0.0113098
6.052	0	0.0110474
6.054	0.0109863	0.0111206
6.056	-0.00793457	0.0109192
6.058	-0.00549316	0.0109131
6.06	0.00183105	0.010614
6.062	0.000610352	0.0106018
6.064	0.00183105	0.0104614
6.066	-0.00610352	0.0104065
6.068	0.00549316	0.0102173
6.07	0.00366211	0.0101196
6.072	-0.012207	0.0098877
6.074	-0.0177002	0.00995483
6.076	-0.00244141	0.00964966
6.078	0.00244141	0.00952148
6.08	0.0115967	0.00939331
6.082	-0.0128174	0.0093689
6.084	-0.0012207	0.0093689
6.086	0.0115967	0.00933228
6.088	-0.00305176	0.00930786
6.09	0.00915527	0.00938721
6.092	0.00915527	0.00938721
6.094	0.0012207	0.00934448
6.096	-0.00671387	0.00939941
6.098	0.0219727	0.00953979
6.1	-0.0140381	0.00960693
6.102	-0.00183105	0.00960693
6.104	0.00488281	0.00949707
6.106	-0.0152588	0.00958862
6.108	0	0.00944824
6.11	-0.000610352	0.00939331
6.112	-0.0177002	0.00944214
6.114	-0.00915527	0.00935669
6.116	-0.00610352	0.00939331
6.118	0.00183105	0.00941162
6.12	-0.012207	0.0093689
6.122	0.00244141	0.00932007
6.124	-0.00305176	0.00919189
6.126	-0.0152588	0.00901489
6.128	0.00732422	0.00907593
6.13	0.0152588	0.00914917
6.132	0.00854492	0.00910645
6.134	-0.0292969	0.00933228
6.136	0.0134277	0.00944214
6.138	-0.00549316	0.00941772
6.14	-0.00549316	0.00932007
6.142	-0.00244141	0.00925903
6.144	0.00549316	0.00925903
6.146	0.0164795	0.00935669
6.148	-0.0219727	0.00956421
6.15	-0.0189209	0.00957642
6.152	-0.0012207	0.0095459
6.154	0.00610352	0.00952759
6.156	0.00732422	0.00952148
6.158	-0.0109863	0.00963135
6.16	-0.020752	0.00977173
6.162	0.000610352	0.00976563
6.164	0.00366211	0.00975342
6.166	0.0146484	0.0098999
6.168	0.0250244	0.0100891
6.17	-0.00366211	0.0100342
6.172	-0.00183105	0.0100037
6.174	0.00488281	0.00993042
6.176	-0.00671387	0.0098877
6.178	-0.0146484	0.00988159
6.18	0.00671387	0.0098999
6.182	-0.010376	0.00971069
6.184	-0.00793457	0.00968628
6.186	0.010376	0.00976563
6.188	-0.0134277	0.0098877
6.19	0.00976563	0.00997314
6.192	0.00305176	0.00999146
6.194	0.0189209	0.0101379
6.196	-0.00488281	0.0101685
6.198	-0.00305176	0.0101685
6.2	0	0.010022
6.202	-0.0012207	0.00996094
6.204	-0.020752	0.0100403
6.206	-0.0109863	0.0100891
6.208	0.00549316	0.0098938
6.21	0.00488281	0.00979004
6.212	-0.0244141	0.00956421
6.214	-0.0109863	0.00943604
6.216	0.00244141	0.0093689
6.218	0.0286865	0.00957642
6.22	-0.0134277	0.00953979
6.222	-0.0158691	0.00964966
6.224	0.00244141	0.00957642
6.226	0.00183105	0.00939941
6.228	0.0115967	0.00904541
6.23	0.00366211	0.00900269
6.232	-0.0201416	0.00913696
6.234	0.010376	0.00909424
6.236	-0.00366211	0.00904541
6.238	0.00427246	0.00894775
6.24	0.00732422	0.0088562
6.242	-0.0012207	0.00859985
6.244	0.00183105	0.00844727
6.246	-0.0183105	0.00860596
6.248	0.00610352	0.00864258
6.25	0.00976563	0.00874023
6.252	-0.0140381	0.00888062
6.254	-0.00366211	0.00880737
6.256	-0.00610352	0.00878906
6.258	0.0189209	0.00892334
6.26	0.012207	0.0090271
6.262	-0.012207	0.00914307
6.264	0.0146484	0.00927124
6.266	0.0183105	0.00939331
6.268	0.0244141	0.00958252
6.27	-0.00793457	0.00962524
6.272	0.00854492	0.00958862
6.274	-0.00610352	0.00947266
6.276	-0.00305176	0.00947876
6.278	-0.0109863	0.00956421
6.28	-0.0170898	0.00961914
6.282	-0.00793457	0.00957031
6.284	0.0134277	0.00969238
6.286	-0.00610352	0.00963745
6.288	0.000610352	0.00961304
6.29	0	0.00952148
6.292	0.0115967	0.0095459
6.294	-0.00427246	0.00957642
6.296	0.0140381	0.00964966
6.298	-0.0177002	0.00960693
6.3	-0.00915527	0.00955811
6.302	-0.0158691	0.00969849
6.304	0.0109863	0.00975952
6.306	-0.022583	0.00983276
6.308	-0.0164795	0.00999756
6.31	0.0195313	0.0101868
6.312	-0.00854492	0.0100952
6.314	-0.00427246	0.0100464
6.316	-0.00549316	0.0100403
6.318	0.00305176	0.0100525
6.32	0.00915527	0.010022
6.322	0.00793457	0.0100769
6.324	0.00610352	0.0101074
6.326	0.00976563	0.0100525
6.328	0	0.00997925
6.33	0	0.00982666
6.332	-0.0012207	0.00975342
6.334	0.00488281	0.00950928
6.336	-0.00915527	0.00946655
6.338	-0.00244141	0.00943604
6.34	0.0170898	0.009552
6.342	0.0244141	0.00977173
6.344	-0.0299072	0.0100159
6.346	0	0.00985107
6.348	-0.0012207	0.00964355
6.35	0.00549316	0.00950928
6.352	0.00183105	0.00951538
6.354	-0.00305176	0.00948486
6.356	-0.0195313	0.00960693
6.358	-0.020752	0.00970459
6.36	0.00793457	0.00957642
6.362	0.00244141	0.00959473
6.364	-0.0170898	0.009729
6.366	-0.0177002	0.00975952
6.368	0.012207	0.00963135
6.37	-0.00244141	0.00961914
6.372	-0.0158691	0.00975952
6.374	-0.0109863	0.00982056
6.376	0.00366211	0.00979004
6.378	0.0128174	0.00977173
6.38	0.0262451	0.00996704
6.382	0.0134277	0.00999756
6.384	-0.0366211	0.0102844
6.386	-0.00671387	0.0102478
6.388	-0.010376	0.0102173
6.39	0.0195313	0.0103149
6.392	-0.00427246	0.0103271
6.394	-0.0170898	0.0103088
6.396	-0.010376	0.0103638
6.398	0.00183105	0.0103516
6.4	0.0195313	0.0105469
6.402	0.00976563	0.0106323
6.404	-0.0134277	0.0105591
6.406	0.010376	0.010553
6.408	0.00244141	0.0105225
6.41	-0.00976563	0.0105713
6.412	-0.00854492	0.0104126
6.414	0.0140381	0.0104431
6.416	-0.0268555	0.0106873
6.418	0.00244141	0.0104248
6.42	0.000610352	0.0102966
6.422	0.00915527	0.0102295
6.424	-0.0109863	0.0103149
6.426	0.00244141	0.010321
6.428	-0.012207	0.0103271
6.43	-0.00610352	0.0103516
6.432	0.00183105	0.0101685
6.434	-0.0109863	0.0101746
6.436	0.00183105	0.0101563
6.438	-0.00305176	0.010144
6.44	0.00244141	0.0100952
6.442	-0.00305176	0.0101135
6.444	-0.0158691	0.0102539
6.446	-0.00244141	0.0100952
6.448	-0.00305176	0.0100647
6.45	-0.00244141	0.00999146
6.452	-0.010376	0.00995483
6.454	-0.00366211	0.00995483
6.456	0	0.0098938
6.458	0.010376	0.00980835
6.46	-0.00549316	0.00974121
6.462	-0.0238037	0.00985718
6.464	0.0262451	0.00997314
6.466	0.0115967	0.00990601
6.468	-0.020752	0.00986938
6.47	0.00854492	0.00987549
6.472	-0.00488281	0.00983887
6.474	-0.000610352	0.00978394
6.476	-0.0115967	0.00986938
6.478	-0.00183105	0.00977783
6.48	-0.0341797	0.00994873
6.482	-0.0146484	0.0100159
6.484	0.043335	0.0103149
6.486	-0.0378418	0.0106323
6.488	-0.0360107	0.0109863
6.49	0.00610352	0.0110474
6.492	-0.00244141	0.0109558
6.494	-0.00366211	0.0109497
6.496	0.000610352	0.0108154
6.498	-0.00915527	0.01073
6.5	0.00671387	0.0107056
6.502	-0.0134277	0.0106812
6.504	-0.0012207	0.0105835
6.506	-0.00427246	0.0104004
6.508	-0.00305176	0.0102661
6.51	0.00915527	0.0101624
6.512	0.0012207	0.0100891
6.514	0.00366211	0.010083
6.516	-0.0012207	0.0100403
6.518	-0.00488281	0.0100586
6.52	0.0238037	0.0102051
6.522	-0.00793457	0.0102051
6.524	-0.00366211	0.0101807
6.526	0.00854492	0.0101685
6.528	0.00427246	0.0102112
6.53	-0.00244141	0.0102356
6.532	-0.00366211	0.01026
6.534	-0.0231934	0.0104431
6.536	-0.00793457	0.0104309
6.538	-0.00488281	0.0104553
6.54	0.0115967	0.0104004
6.542	-0.010376	0.01026
6.544	-0.00854492	0.0100464
6.546	0.00549316	0.0101013
6.548	0.0146484	0.0102356
6.55	-0.0195313	0.010376
6.552	0.012207	0.0104797
6.554	-0.00305176	0.0104797
6.556	0.00671387	0.0103516
6.558	0.00427246	0.0101868
6.56	-0.0164795	0.0102722
6.562	0.00427246	0.0102905
6.564	-0.00183105	0.0101379
6.566	-0.00732422	0.0100342
6.568	0.00488281	0.00996094
6.57	-0.0152588	0.0100891
6.572	-0.00671387	0.00999756
6.574	-0.00854492	0.00997314
6.576	0.0292969	0.0102295
6.578	-0.0158691	0.01026
6.58	-0.00244141	0.010022
6.582	0.00244141	0.00991211
6.584	0.0189209	0.00973511
6.586	0.00427246	0.00971069
6.588	0.00793457	0.00968628
6.59	0.0299072	0.00979004
6.592	-0.0183105	0.00993042
6.594	-0.00305176	0.00979004
6.596	0.00610352	0.00974731
6.598	0.00488281	0.00977783
6.6	-0.0177002	0.00975952
6.602	0.0231934	0.0098938
6.604	-0.0140381	0.0098999
6.606	-0.00671387	0.00986328
6.608	0.00976563	0.00993652
6.61	0.000610352	0.00984497
6.612	0.0152588	0.00991211
6.614	-0.00427246	0.00981445
6.616	0.00244141	0.00957031
6.618	0.00366211	0.00958252
6.62	-0.00549316	0.00963135
6.622	0.010376	0.00964355
6.624	-0.00488281	0.00958252
6.626	0.00610352	0.00961914
6.628	-0.00305176	0.00952759
6.63	0.0158691	0.00962524
6.632	0.00488281	0.00965576
6.634	-0.0213623	0.00975952
6.636	0.00610352	0.00980225
6.638	0.00244141	0.00979614
6.64	-0.00915527	0.00986328
6.642	0.00366211	0.00986938
6.644	-0.00610352	0.00977173
6.646	0.0115967	0.00986328
6.648	-0.010376	0.00993652
6.65	0.0177002	0.0100891
6.652	0.0115967	0.0101013
6.654	-0.00183105	0.010083
6.656	0.0152588	0.0102356
6.658	-0.00732422	0.0102051
6.66	-0.00610352	0.0102112
6.662	-0.00427246	0.0100159
6.664	-0.00976563	0.00985107
6.666	-0.00183105	0.00975342
6.668	-0.0109863	0.00965576
6.67	-0.0213623	0.00978394
6.672	0.0012207	0.00974731
6.674	-0.000610352	0.00974731
6.676	-0.00183105	0.00964966
6.678	0.00610352	0.00969238
6.68	0.00732422	0.00942383
6.682	-0.000610352	0.00928345
6.684	0.000610352	0.0088562
6.686	0.00244141	0.0085022
6.688	0.00854492	0.00822754
6.69	0.00183105	0.00818481
6.692	-0.00671387	0.00822754
6.694	0.0012207	0.00820313
6.696	-0.0140381	0.0083374
6.698	-0.00549316	0.00830078
6.7	0.010376	0.0083374
6.702	0.0238037	0.00844116
6.704	0.00183105	0.00844727
6.706	-0.020752	0.00861206
6.708	0.00793457	0.00866089
6.71	0.0152588	0.00872192
6.712	-0.000610352	0.00871582
6.714	-0.00305176	0.00870972
6.716	-0.00549316	0.00875244
6.718	-0.010376	0.00880737
6.72	-0.00427246	0.00861206
6.722	-0.00976563	0.00863037
6.724	0.0134277	0.00872803
6.726	0.000610352	0.00864868
6.728	0.00244141	0.00863037
6.73	0.0109863	0.00871582
6.732	0.00610352	0.00874023
6.734	0.00671387	0.00857544
6.736	-0.00671387	0.00856323
6.738	0.00549316	0.00856934
6.74	0.000610352	0.00845947
6.742	0.00732422	0.00842896
6.744	-0.00427246	0.00838623
6.746	-0.00671387	0.00839844
6.748	-0.00183105	0.00827026
6.75	0.0134277	0.00820923
6.752	-0.00244141	0.00811157
6.754	0.00915527	0.00817261
6.756	0.00488281	0.0081543
6.758	-0.00427246	0.0081543
6.76	0.00366211	0.00802612
6.762	0.0128174	0.00811157
6.764	-0.010376	0.00819702
6.766	-0.00183105	0.00814209
6.768	0.000610352	0.00809937
6.77	0.0134277	0.00808105
6.772	0.00305176	0.00804443
6.774	-0.00305176	0.0079895
6.776	-0.00671387	0.00776367
6.778	0.00366211	0.0076416
6.78	0.0158691	0.00777588
6.782	0.00976563	0.00784912
6.784	-0.00244141	0.00768433
6.786	0.00854492	0.00772705
6.788	0.000610352	0.00765381
6.79	0.0152588	0.00750732
6.792	0.0012207	0.00733643
6.794	-0.000610352	0.00731201
6.796	0	0.00725098
6.798	-0.00732422	0.00727539
6.8	0.0115967	0.00721436
6.802	0.00244141	0.00700684
6.804	0.000610352	0.00687256
6.806	0.0146484	0.0069519
6.808	-0.00976563	0.0069519
6.81	0.00244141	0.00697021
6.812	0.0341797	0.00715942
6.814	-0.00671387	0.00718384
6.816	-0.0134277	0.0072937
6.818	0.0115967	0.00737305
6.82	-0.00854492	0.00740356
6.822	-0.00244141	0.00732422
6.824	-0.00549316	0.00733032
6.826	0.0128174	0.00739746
6.828	-0.00488281	0.00741577
6.83	-0.00793457	0.00733643
6.832	0.010376	0.00739136
6.834	-0.000610352	0.00718384
6.836	-0.00854492	0.00720825
6.838	0.00305176	0.00721436
6.84	0.000610352	0.00712891
6.842	-0.00610352	0.00715332
6.844	-0.0012207	0.00710449
6.846	0.00854492	0.00707397
6.848	0	0.00697021
6.85	0.00366211	0.00682983
6.852	0.0109863	0.00682373
6.854	0.00244141	0.00682983
6.856	0.00671387	0.00674438
6.858	0.00976563	0.0067688
6.86	0.0213623	0.00692139
6.862	-0.0183105	0.00706177
6.864	-0.0109863	0.00707397
6.866	0.0140381	0.00719604
6.868	0.0012207	0.00709839
6.87	0.0256348	0.00714111
6.872	-0.0354004	0.00748291
6.874	-0.00366211	0.00751343
6.876	0.00671387	0.00756226
6.878	0.00366211	0.00753784
6.88	0.00305176	0.00749512
6.882	0.00549316	0.00754395
6.884	0.00427246	0.00758057
6.886	0.00549316	0.00761108
6.888	-0.00976563	0.00762329
6.89	0.00183105	0.00762329
6.892	0.0189209	0.00774536
6.894	-0.010376	0.00783691
6.896	-0.0170898	0.00786743
6.898	0	0.0078125
6.9	-0.00915527	0.00780029
6.902	-0.0189209	0.00775146
6.904	0.010376	0.00783691
6.906	0.0213623	0.00784302
6.908	0.00366211	0.00780029
6.91	0.00183105	0.00766602
6.912	0.0109863	0.00776978
6.914	0.0152588	0.00789185
6.916	0.00976563	0.00793457
6.918	0.00854492	0.00791626
6.92	0.00488281	0.00792236
6.922	-0.00671387	0.00789185
6.924	-0.0128174	0.00788574
6.926	-0.00183105	0.00789795
6.928	-0.00793457	0.00795288
6.93	0.0195313	0.00803833
6.932	-0.0158691	0.00813599
6.934	-0.00427246	0.00811157
6.936	0.0146484	0.00819092
6.938	0.00305176	0.0081665
6.94	0.0177002	0.0083374
6.942	-0.0152588	0.00841675
6.944	0.00244141	0.00839844
6.946	0.010376	0.00843506
6.948	-0.00488281	0.00846558
6.95	0.00610352	0.00839233
6.952	-0.00488281	0.00841675
6.954	-0.00671387	0.00839233
6.956	-0.00183105	0.00836182
6.958	-0.00610352	0.00838013
6.96	-0.00427246	0.00838623
6.962	0.00854492	0.00834351
6.964	-0.00549316	0.00829468
6.966	-0.00488281	0.0083252
6.968	-0.0115967	0.00843506
6.97	0.010376	0.00840454
6.972	0.00610352	0.00843506
6.974	0.0128174	0.00853271
6.976	0.00488281	0.0085144
6.978	0.0128174	0.00860596
6.98	0.000610352	0.00845337
6.982	0.00610352	0.00841675
6.984	0.00671387	0.00845947
6.986	0.0152588	0.00852661
6.988	-0.00366211	0.00855713
6.99	0.0177002	0.00858154
6.992	-0.0262451	0.00883179
6.994	0.0128174	0.00895386
6.996	0.00305176	0.00898438
6.998	-0.00915527	0.00900269
7	-0.0115967	0.00900269
7.002	0.0128174	0.00910645
7.004	0.00427246	0.00914307
7.006	-0.0305176	0.00930176
7.008	0.0292969	0.00949707
7.01	0.0158691	0.00963135
7.012	-0.0158691	0.00944824
7.014	0	0.0093811
7.016	0.00305176	0.00927734
7.018	-0.0012207	0.00917358
7.02	-0.00671387	0.00915527
7.022	-0.00244141	0.00915527
7.024	-0.00366211	0.00913696
7.026	-0.00488281	0.00905762
7.028	0.00488281	0.00905762
7.03	0.0115967	0.00909424
7.032	-0.0213623	0.0092041
7.034	0.00793457	0.00927734
7.036	0.00854492	0.00927734
7.038	-0.00488281	0.00929565
7.04	-0.012207	0.00941162
7.042	0.0140381	0.00949097
7.044	0.00976563	0.00957642
7.046	-0.00549316	0.0095459
7.048	0.0109863	0.00965576
7.05	0.010376	0.0097229
7.052	0.0109863	0.0097229
7.054	-0.00366211	0.00973511
7.056	0.00976563	0.00976563
7.058	-0.00732422	0.00974121
7.06	-0.00305176	0.00955811
7.062	0.0158691	0.00953369
7.064	-0.012207	0.0095459
7.066	0.00976563	0.00950317
7.068	-0.00488281	0.00953979
7.07	0.00732422	0.00935669
7.072	-0.010376	0.00910645
7.074	0.0140381	0.00921021
7.076	0.00671387	0.00921021
7.078	-0.00671387	0.00924072
7.08	-0.00976563	0.00930786
7.082	0.0152588	0.00940552
7.084	-0.00305176	0.00939331
7.086	-0.00854492	0.00942383
7.088	0.0195313	0.00952148
7.09	-0.0250244	0.00975342
7.092	-0.00976563	0.00966187
7.094	0.0158691	0.0097168
7.096	-0.00183105	0.00956421
7.098	-0.00976563	0.00966187
7.1	-0.00976563	0.00966797
7.102	0.00976563	0.00957642
7.104	-0.00549316	0.00952759
7.106	-0.000610352	0.00932007
7.108	0.0146484	0.00942993
7.11	0.010376	0.00951538
7.112	-0.00793457	0.00948486
7.114	0.00244141	0.00935669
7.116	-0.0012207	0.00927124
7.118	0.020752	0.00939331
7.12	-0.00183105	0.00936279
7.122	-0.00671387	0.00936279
7.124	0.0115967	0.00935059
7.126	-0.00366211	0.0093689
7.128	-0.00671387	0.00935669
7.13	0.00793457	0.00924072
7.132	-0.0244141	0.00932617
7.134	0.0115967	0.00939941
7.136	-0.000610352	0.00925903
7.138	-0.00366211	0.00926514
7.14	-0.0140381	0.00922852
7.142	-0.00671387	0.00914307
7.144	-0.00488281	0.00916748
7.146	0.0299072	0.00936279
7.148	-0.0170898	0.00948486
7.15	-0.00610352	0.00948486
7.152	-0.00488281	0.00948486
7.154	0.0134277	0.009552
7.156	0.00488281	0.00958252
7.158	0.00610352	0.00958252
7.16	-0.0012207	0.009552
7.162	0.00976563	0.00956421
7.164	-0.00427246	0.009552
7.166	0.0012207	0.00951538
7.168	-0.00549316	0.00945435
7.17	0.00854492	0.00943604
7.172	-0.0012207	0.00938721
7.174	-0.0183105	0.00944214
7.176	-0.0012207	0.00940552
7.178	0.00976563	0.009375
7.18	-0.00488281	0.00941772
7.182	-0.0134277	0.00949097
7.184	0.00732422	0.00949707
7.186	0.00671387	0.00941162
7.188	-0.0213623	0.00958862
7.19	0.00976563	0.00950928
7.192	0.0115967	0.00936279
7.194	-0.0195313	0.00942993
7.196	0.00732422	0.00947266
7.198	0.00610352	0.00944214
7.2	-0.0274658	0.00960083
7.202	0.0170898	0.00964355
7.204	0.012207	0.0097229
7.206	-0.022583	0.00964355
7.208	-0.00183105	0.0093689
7.21	0.000610352	0.00921631
7.212	0.0158691	0.00921631
7.214	-0.043335	0.00964966
7.216	0.0140381	0.00975952
7.218	0.00732422	0.00982056
7.22	-0.00488281	0.00980225
7.222	-0.000610352	0.00978394
7.224	-0.00915527	0.00983887
7.226	-0.0177002	0.00996704
7.228	0.00732422	0.00999146
7.23	0.00671387	0.00994263
7.232	-0.0268555	0.00999756
7.234	-0.0219727	0.0101379
7.236	0.00305176	0.010083
7.238	0	0.0100342
7.24	-0.00671387	0.00997925
7.242	-0.010376	0.00994263
7.244	0.00488281	0.0098938
7.246	0.0140381	0.00997925
7.248	-0.012207	0.00999146
7.25	-0.0170898	0.0100586
7.252	0.00976563	0.0100464
7.254	0.0140381	0.0101501
7.256	-0.0262451	0.0103149
7.258	-0.0134277	0.010376
7.26	-0.00305176	0.010376
7.262	0.00488281	0.0102661
7.264	0.00915527	0.0102356
7.266	-0.00732422	0.0102112
7.268	-0.00244141	0.0101868
7.27	-0.00427246	0.0101563
7.272	0.00732422	0.0101257
7.274	0.012207	0.0101074
7.276	0	0.0100403
7.278	0.00671387	0.0100403
7.28	-0.00305176	0.00997314
7.282	0.00915527	0.00991211
7.284	0.0012207	0.0098938
7.286	0.00183105	0.00982666
7.288	0.00244141	0.00965576
7.29	0.0164795	0.00957031
7.292	0.00488281	0.00952148
7.294	-0.00854492	0.00944824
7.296	0.012207	0.009552
7.298	0.0335693	0.00979004
7.3	-0.0115967	0.00980835
7.302	-0.00427246	0.00975342
7.304	0.0134277	0.00983276
7.306	0.00610352	0.0098877
7.308	-0.0140381	0.00988159
7.31	0.000610352	0.00978394
7.312	-0.00366211	0.00974121
7.314	0.0213623	0.00993042
7.316	-0.0134277	0.0100525
7.318	-0.012207	0.00996704
7.32	-0.00244141	0.00997314
7.322	0.00183105	0.00992432
7.324	-0.0012207	0.00982056
7.326	0.00427246	0.00982666
7.328	-0.0012207	0.00977173
7.33	0.000610352	0.00969849
7.332	-0.00305176	0.00948486
7.334	0.000610352	0.009375
7.336	0.0109863	0.00947876
7.338	0.00793457	0.00952148
7.34	0.0189209	0.00957031
7.342	-0.022583	0.009729
7.344	-0.0213623	0.0098938
7.346	0.0177002	0.00977173
7.348	0.00671387	0.00966797
7.35	-0.012207	0.009729
7.352	-0.012207	0.00980225
7.354	-0.00305176	0.00969849
7.356	0.0128174	0.00977783
7.358	0.0012207	0.009729
7.36	0.00427246	0.00975952
7.362	-0.00915527	0.00975342
7.364	-0.00671387	0.00977783
7.366	0.0231934	0.00999756
7.368	-0.012207	0.0100647
7.37	-0.0134277	0.0101135
7.372	-0.00732422	0.0101746
7.374	-0.00549316	0.0100464
7.376	0.00305176	0.0100647
7.378	0.000610352	0.00997314
7.38	-0.000610352	0.00993042
7.382	0.0012207	0.00980835
7.384	0.00427246	0.00977783
7.386	0.0115967	0.00982666
7.388	-0.0134277	0.00974731
7.39	0.00427246	0.00969238
7.392	0.0177002	0.00975342
7.394	0.00854492	0.00964355
7.396	-0.0158691	0.009729
7.398	0.0177002	0.00984497
7.4	-0.00427246	0.00961304
7.402	0.0177002	0.00961914
7.404	0	0.00949707
7.406	-0.00488281	0.00932007
7.408	0.00366211	0.00933838
7.41	0.00488281	0.0093811
7.412	-0.00366211	0.00925903
7.414	-0.0140381	0.00896606
7.416	-0.00244141	0.0088501
7.418	0.00183105	0.00879517
7.42	-0.00610352	0.00880737
7.422	0.00488281	0.0088501
7.424	-0.00671387	0.00882568
7.426	0.00976563	0.00874634
7.428	0	0.0086731
7.43	0.00366211	0.00864258
7.432	0.0115967	0.00848999
7.434	-0.0152588	0.00842285
7.436	0.0201416	0.00859375
7.438	-0.00183105	0.00861206
7.44	0.00854492	0.00863037
7.442	-0.00915527	0.00861816
7.444	-0.00244141	0.00859375
7.446	0.0128174	0.00858154
7.448	-0.0012207	0.00847168
7.45	0.0238037	0.00853882
7.452	-0.00854492	0.00852661
7.454	-0.00549316	0.00844116
7.456	-0.00183105	0.00819702
7.458	0.0128174	0.00819092
7.46	-0.00427246	0.00820313
7.462	0	0.0081543
7.464	0.00793457	0.00814209
7.466	-0.00549316	0.00812378
7.468	-0.00183105	0.00811768
7.47	0.000610352	0.00808105
7.472	0.00671387	0.00807495
7.474	-0.00427246	0.00799561
7.476	0.0268555	0.00826416
7.478	-0.012207	0.00831909
7.48	0.00366211	0.0083252
7.482	-0.00427246	0.00827637
7.484	0.00549316	0.00831909
7.486	0.0128174	0.00842896
7.488	0.0201416	0.00860596
7.49	0.00915527	0.00853271
7.492	-0.012207	0.00860596
7.494	0.00305176	0.00855103
7.496	0.012207	0.00855103
7.498	0.00366211	0.00825195
7.5	-0.00732422	0.00820923
7.502	-0.00854492	0.00825195
7.504	0.00915527	0.00820923
7.506	-0.0140381	0.00828857
7.508	0.0183105	0.0083313
7.51	0.00793457	0.00840454
7.512	0.00488281	0.00841675
7.514	0.00549316	0.00825806
7.516	0.00549316	0.00817871
7.518	0.0134277	0.00819092
7.52	0.00671387	0.00823364
7.522	-0.0158691	0.00837402
7.524	-0.00732422	0.00843506
7.526	-0.000610352	0.00839844
7.528	-0.00183105	0.00840454
7.53	0.0012207	0.00841064
7.532	-0.00854492	0.00846558
7.534	0.022583	0.0086853
7.536	-0.0177002	0.00875244
7.538	-0.0115967	0.00878906
7.54	-0.00427246	0.00864258
7.542	-0.0189209	0.00860596
7.544	0.00427246	0.00843506
7.546	0.00488281	0.00830688
7.548	-0.00366211	0.00827637
7.55	-0.00183105	0.00817261
7.552	0.00244141	0.00807495
7.554	0.0268555	0.00831299
7.556	-0.00366211	0.00822144
7.558	0.00671387	0.00827637
7.56	-0.000610352	0.00823975
7.562	-0.0158691	0.00830688
7.564	-0.00610352	0.00830078
7.566	0.00366211	0.00810547
7.568	-0.0238037	0.00822144
7.57	-0.0231934	0.00831909
7.572	0.00305176	0.00827637
7.574	0.00793457	0.00830078
7.576	-0.0109863	0.00838013
7.578	-0.00488281	0.00842285
7.58	-0.00793457	0.00849609
7.582	0.00427246	0.00852661
7.584	0.0134277	0.00861816
7.586	-0.000610352	0.0085083
7.588	-0.00305176	0.00840454
7.59	0.00427246	0.00840454
7.592	0.00244141	0.00825195
7.594	-0.00183105	0.00818481
7.596	0.0152588	0.00817871
7.598	0.00305176	0.00803223
7.6	-0.00854492	0.00807495
7.602	0	0.00789795
7.604	0.0305176	0.00820313
7.606	-0.00610352	0.00821533
7.608	0.00427246	0.00822144
7.61	0.0012207	0.00818481
7.612	-0.00793457	0.00822754
7.614	-0.0128174	0.00821533
7.616	-0.0012207	0.00820313
7.618	0.0189209	0.00837402
7.62	-0.012207	0.00843506
7.622	-0.00427246	0.00842896
7.624	-0.0183105	0.00854492
7.626	0.00427246	0.00848999
7.628	0.00915527	0.00858154
7.63	0.0177002	0.00872192
7.632	-0.00854492	0.00869141
7.634	-0.0201416	0.00874023
7.636	-0.0140381	0.0086792
7.638	-0.00488281	0.00870972
7.64	0.00732422	0.00869751
7.642	-0.00244141	0.00863037
7.644	0.00488281	0.00865479
7.646	0.0109863	0.00863647
7.648	-0.0109863	0.00873413
7.65	0.00671387	0.00856323
7.652	0.0152588	0.00863037
7.654	-0.00183105	0.00859375
7.656	0	0.00857544
7.658	0.00183105	0.00846558
7.66	-0.0189209	0.00861206
7.662	-0.0128174	0.00874023
7.664	0.0177002	0.00883789
7.666	-0.00732422	0.0088562
7.668	0.00732422	0.00891113
7.67	-0.00793457	0.00898438
7.672	0.00549316	0.00897217
7.674	-0.00244141	0.00895386
7.676	0.00366211	0.00872192
7.678	0.00427246	0.00864258
7.68	0.0146484	0.00875244
7.682	-0.00549316	0.00876465
7.684	-0.00305176	0.00874023
7.686	0.00671387	0.0086792
7.688	0.00793457	0.00855713
7.69	-0.0128174	0.00859375
7.692	0.00366211	0.0085083
7.694	0.00305176	0.0085083
7.696	-0.00305176	0.00841675
7.698	-0.0164795	0.00854492
7.7	0.00976563	0.00856934
7.702	-0.00427246	0.00852661
7.704	0.00305176	0.00846558
7.706	0.0164795	0.00848999
7.708	-0.0195313	0.0085022
7.71	-0.0189209	0.00861206
7.712	0.0268555	0.00883179
7.714	-0.012207	0.00889893
7.716	-0.0341797	0.00918579
7.718	0.000610352	0.00905762
7.72	0.0012207	0.00900269
7.722	0.0115967	0.00895996
7.724	0.0012207	0.00889893
7.726	0.00915527	0.00898438
7.728	-0.0140381	0.00910645
7.73	0.0292969	0.00938721
7.732	0.00976563	0.00939941
7.734	-0.0183105	0.00935669
7.736	0.00732422	0.00925293
7.738	0.00488281	0.00918579
7.74	-0.00793457	0.00922241
7.742	0.000610352	0.00903931
7.744	-0.0158691	0.00915527
7.746	0.00671387	0.00917358
7.748	0.012207	0.00925903
7.75	-0.00610352	0.00930176
7.752	-0.0012207	0.00928955
7.754	0	0.009021
7.756	-0.00427246	0.0090271
7.758	-0.00366211	0.00899658
7.76	-0.00793457	0.00906982
7.762	-0.0012207	0.00892334
7.764	0.00915527	0.00895386
7.766	-0.00671387	0.00898438
7.768	-0.0305176	0.00905151
7.77	0.00732422	0.00889282
7.772	0.00305176	0.00889282
7.774	-0.0012207	0.00882568
7.776	-0.00732422	0.00878906
7.778	0.0012207	0.00875244
7.78	-0.00183105	0.00869141
7.782	-0.00549316	0.00870361
7.784	0.00915527	0.00866089
7.786	0.0134277	0.00878906
7.788	0.00244141	0.00878296
7.79	-0.00366211	0.00877686
7.792	-0.0012207	0.00876465
7.794	-0.00793457	0.00882568
7.796	0.00427246	0.00871582
7.798	-0.0128174	0.00881348
7.8	-0.00671387	0.00879517
7.802	-0.00244141	0.00881958
7.804	-0.00183105	0.00853271
7.806	-0.00915527	0.00856323
7.808	0.0201416	0.00872192
7.81	0.00976563	0.00880737
7.812	0.00366211	0.00876465
7.814	0.0115967	0.00875244
7.816	0.00915527	0.00883179
7.818	0.00305176	0.0086731
7.82	-0.00732422	0.00862427
7.822	0.0158691	0.00874023
7.824	-0.0152588	0.00870972
7.826	-0.00427246	0.00870972
7.828	0.00427246	0.00866089
7.83	-0.0146484	0.00863037
7.832	-0.00854492	0.00863037
7.834	-0.000610352	0.00843506
7.836	0.00610352	0.00835571
7.838	-0.00610352	0.00836792
7.84	0.00732422	0.00836792
7.842	-0.00610352	0.00840454
7.844	0.00976563	0.00845337
7.846	-0.00488281	0.00839233
7.848	0.022583	0.0085083
7.85	0.0317383	0.00875854
7.852	-0.00976563	0.00870361
7.854	-0.0201416	0.00888672
7.856	0.0177002	0.00906372
7.858	0.00732422	0.00911865
7.86	0.000610352	0.00893555
7.862	-0.0164795	0.00897217
7.864	-0.0140381	0.00893555
7.866	-0.00610352	0.00892334
7.868	0.00732422	0.00892334
7.87	-0.00610352	0.00890503
7.872	0	0.0088501
7.874	0.010376	0.00892944
7.876	-0.00366211	0.00892944
7.878	0.00854492	0.00897217
7.88	0.0177002	0.00900269
7.882	0.00305176	0.00897827
7.884	0.00305176	0.00897827
7.886	-0.00793457	0.00899048
7.888	-0.00610352	0.00897217
7.89	0.00610352	0.00890503
7.892	0	0.00886841
7.894	-0.012207	0.00895996
7.896	-0.00488281	0.00897827
7.898	0.00488281	0.0088623
7.9	0.00427246	0.00880737
7.902	-0.00488281	0.00881348
7.904	-0.0109863	0.00889282
7.906	0.0238037	0.00896606
7.908	0	0.00877075
7.91	0.00976563	0.0086792
7.912	-0.0158691	0.00856934
7.914	0.000610352	0.00845337
7.916	-0.00915527	0.00820313
7.918	-0.00366211	0.00823364
7.92	0.0012207	0.00823364
7.922	-0.00305176	0.00814819
7.924	-0.020752	0.00834351
7.926	0.00427246	0.00829468
7.928	0.0140381	0.00829468
7.93	-0.00183105	0.00802002
7.932	-0.00610352	0.0079834
7.934	0.0140381	0.00794067
7.936	0.0115967	0.0079834
7.938	0.0115967	0.00805054
7.94	-0.0213623	0.00818481
7.942	0.020752	0.00838623
7.944	-0.0140381	0.00836792
7.946	-0.00488281	0.00834961
7.948	0.00915527	0.00831909
7.95	-0.0231934	0.00848999
7.952	-0.00488281	0.00852661
7.954	-0.00549316	0.00858154
7.956	-0.000610352	0.00854492
7.958	-0.00366211	0.00854492
7.96	-0.00976563	0.00856323
7.962	0.00305176	0.00858154
7.964	-0.00488281	0.00853882
7.966	0.00549316	0.00852661
7.968	-0.00854492	0.00830688
7.97	0	0.00823364
7.972	-0.00793457	0.00828247
7.974	-0.00976563	0.00836792
7.976	0.00915527	0.00838623
7.978	0.0012207	0.00838623
7.98	-0.00488281	0.00841675
7.982	0.00976563	0.00845947
7.984	-0.00305176	0.00839844
7.986	-0.00549316	0.00831909
7.988	0.0164795	0.00845947
7.99	0.0158691	0.00858154
7.992	-0.0238037	0.00880737
7.994	-0.00610352	0.00878906
7.996	0.00976563	0.00884399
7.998	-0.00915527	0.00880737
8	-0.00549316	0.00879517
8.002	0.000610352	0.00877686
8.004	-0.00244141	0.00878296
8.006	0.00793457	0.00877075
8.008	0.0115967	0.0086853
8.01	-0.00549316	0.00864258
8.012	-0.00732422	0.0086792
8.014	0.020752	0.00877075
8.016	0.0012207	0.00869141
8.018	-0.00366211	0.00869751
8.02	-0.0115967	0.00874023
8.022	0.0201416	0.00878296
8.024	0.0109863	0.00874023
8.026	0.00183105	0.00871582
8.028	0.0012207	0.0086853
8.03	-0.00366211	0.00857544
8.032	0.0262451	0.00875244
8.034	0	0.00874634
8.036	0.000610352	0.00869141
8.038	-0.00183105	0.00864868
8.04	0.00244141	0.00859985
8.042	-0.00610352	0.00859985
8.044	-0.00366211	0.00853882
8.046	0.0109863	0.00859985
8.048	-0.00244141	0.00839844
8.05	-0.00610352	0.00814209
8.052	-0.00549316	0.00809937
8.054	0.0140381	0.00803833
8.056	0.00671387	0.00792847
8.058	-0.00915527	0.00794678
8.06	0.00793457	0.00802002
8.062	0.00427246	0.00789795
8.064	-0.0012207	0.00776978
8.066	0.00854492	0.00779419
8.068	-0.0219727	0.00794067
8.07	0.0152588	0.00803223
8.072	0.0274658	0.00830688
8.074	-0.0256348	0.00845947
8.076	-0.012207	0.00854492
8.078	0.0177002	0.00863647
8.08	-0.00488281	0.0085083
8.082	0.00244141	0.0085022
8.084	0	0.00847168
8.086	0.00549316	0.00844727
8.088	0.0012207	0.00839844
8.09	-0.0158691	0.00849609
8.092	0.0195313	0.00869141
8.094	0.00671387	0.00863647
8.096	-0.0012207	0.00859985
8.098	-0.00854492	0.00863647
8.1	0.00610352	0.00865479
8.102	0.0317383	0.00892334
8.104	-0.00305176	0.00884399
8.106	-0.0292969	0.00889893
8.108	0.00915527	0.00899048
8.11	-0.00610352	0.00895386
8.112	0.00671387	0.0088623
8.114	0.00183105	0.00887451
8.116	-0.0335693	0.00911865
8.118	0.022583	0.00930786
8.12	0.0109863	0.00940552
8.122	-0.0268555	0.00964355
8.124	0.0158691	0.00959473
8.126	0.0128174	0.00968018
8.128	-0.00244141	0.00956421
8.13	0.00915527	0.00963745
8.132	-0.00671387	0.00964355
8.134	0.00549316	0.00955811
8.136	-0.00732422	0.00951538
8.138	-0.010376	0.00950317
8.14	-0.00366211	0.00932617
8.142	0.0134277	0.00925293
8.144	-0.0115967	0.00922852
8.146	-0.0128174	0.00930786
8.148	0.00854492	0.00930176
8.15	0.00427246	0.00911255
8.152	0.00671387	0.00913086
8.154	0.0189209	0.00926514
8.156	-0.000610352	0.00926514
8.158	0.00366211	0.00926514
8.16	0.00549316	0.00922241
8.162	0.0238037	0.00942993
8.164	-0.00183105	0.00939941
8.166	0.000610352	0.00935059
8.168	-0.0128174	0.00939331
8.17	0.0140381	0.00953369
8.172	-0.0115967	0.00957031
8.174	-0.0115967	0.00958862
8.176	0.00854492	0.00958252
8.178	-0.00915527	0.00966187
8.18	0.00854492	0.00969849
8.182	0	0.00960083
8.184	-0.0115967	0.00968628
8.186	0.000610352	0.00963745
8.188	0.0183105	0.00965576
8.19	0.010376	0.00960083
8.192	-0.0170898	0.00953369
8.194	0.00427246	0.00951538
8.196	0.00854492	0.00950317
8.198	0.00427246	0.00945435
8.2	-0.00549316	0.00945435
8.202	-0.0231934	0.00968018
8.204	0.0195313	0.00985107
8.206	0.000610352	0.00977783
8.208	-0.0109863	0.00977173
8.21	-0.0421143	0.0101379
8.212	0.0183105	0.0102478
8.214	0.0335693	0.010376
8.216	-0.0115967	0.0104797
8.218	-0.012207	0.0105652
8.22	0.0109863	0.0105591
8.222	-0.00183105	0.010376
8.224	0.00244141	0.0102905
8.226	-0.0012207	0.0102844
8.228	-0.00427246	0.0103149
8.23	0.00427246	0.010321
8.232	-0.0140381	0.010199
8.234	0.00183105	0.0102173
8.236	-0.000610352	0.0102173
8.238	0	0.010199
8.24	-0.00549316	0.0102295
8.242	0.0164795	0.0103333
8.244	-0.00549316	0.0103516
8.246	-0.0201416	0.0104431
8.248	0.00549316	0.0104736
8.25	0.00732422	0.0104858
8.252	-0.0146484	0.0105774
8.254	-0.00854492	0.0105225
8.256	-0.00610352	0.0105164
8.258	0.00183105	0.0104431
8.26	0.0128174	0.0104919
8.262	-0.00854492	0.0105347
8.264	0.00427246	0.0105652
8.266	-0.00244141	0.0105042
8.268	0.00793457	0.0103638
8.27	0.00610352	0.0102722
8.272	-0.00488281	0.0100464
8.274	-0.00183105	0.00980835
8.276	0.0012207	0.00969849
8.278	0.00732422	0.00959473
8.28	-0.0152588	0.00969849
8.282	0.0012207	0.00968628
8.284	0.0146484	0.00983276
8.286	0.012207	0.0098999
8.288	-0.012207	0.0100098
8.29	0.022583	0.0100769
8.292	-0.00793457	0.00996094
8.294	0.010376	0.00999756
8.296	-0.00488281	0.0100342
8.298	-0.00549316	0.0100037
8.3	0.00549316	0.00999756
8.302	-0.0164795	0.00984497
8.304	0.0134277	0.00994873
8.306	-0.022583	0.00988159
8.308	0.00671387	0.00985718
8.31	-0.0164795	0.00996094
8.312	0.00671387	0.00996094
8.314	0.00671387	0.0100098
8.316	0.012207	0.00979614
8.318	-0.000610352	0.00957642
8.32	-0.00915527	0.00955811
8.322	0.00732422	0.00936279
8.324	0.00488281	0.00925293
8.326	0.0140381	0.00926514
8.328	-0.00488281	0.00928955
8.33	-0.0146484	0.00934448
8.332	-0.00427246	0.00932007
8.334	0.0244141	0.00950928
8.336	-0.0189209	0.00962524
8.338	-0.0280762	0.00980225
8.34	0.0457764	0.0102234
8.342	0.020752	0.0102966
8.344	-0.0213623	0.0103943
8.346	-0.0109863	0.010376
8.348	0.0250244	0.0105408
8.35	0.00488281	0.0105469
8.352	0.0109863	0.0105896
8.354	0.0189209	0.0105896
8.356	-0.032959	0.0109131
8.358	-0.00610352	0.0109375
8.36	0.0012207	0.0108948
8.362	0.0128174	0.0107849
8.364	0.0183105	0.0109497
8.366	-0.0292969	0.0112366
8.368	-0.00366211	0.011145
8.37	0.00183105	0.0110229
8.372	0.0189209	0.0110962
8.374	-0.020752	0.0111877
8.376	0.00854492	0.0111877
8.378	-0.0012207	0.0111084
8.38	-0.00244141	0.0110474
8.382	0.00671387	0.0111145
8.384	0.000610352	0.0110046
8.386	-0.00915527	0.0110901
8.388	0.00305176	0.0109375
8.39	0.00549316	0.0108887
8.392	-0.0140381	0.0108582
8.394	-0.0152588	0.010968
8.396	0.00671387	0.0109497
8.398	0.00549316	0.0109619
8.4	0.0189209	0.0110962
8.402	-0.0262451	0.0111267
8.404	0.00244141	0.0109558
8.406	0.00854492	0.0110352
8.408	-0.012207	0.0110474
8.41	0.00427246	0.0106689
8.412	-0.0219727	0.0107056
8.414	0.00793457	0.0104492
8.416	0.0012207	0.0103455
8.418	-0.00305176	0.0102539
8.42	-0.00732422	0.0102173
8.422	0.00976563	0.0102966
8.424	0.00305176	0.0103027
8.426	0.0012207	0.0103027
8.428	-0.00427246	0.0103027
8.43	-0.0134277	0.0103943
8.432	-0.00427246	0.0102966
8.434	-0.000610352	0.0102844
8.436	-0.00488281	0.0103271
8.438	-0.010376	0.0104309
8.44	-0.00305176	0.0104065
8.442	0.0109863	0.0103516
8.444	-0.00427246	0.0103394
8.446	0.00366211	0.0101746
8.448	-0.00244141	0.010144
8.45	0.0164795	0.0102356
8.452	0.00427246	0.0101318
8.454	-0.0164795	0.0102112
8.456	-0.00671387	0.0102173
8.458	0.0134277	0.0103333
8.46	-0.00976563	0.0103027
8.462	-0.0140381	0.0103577
8.464	0.0219727	0.0105347
8.466	-0.0177002	0.0106873
8.468	-0.00976563	0.0107056
8.47	0.0280762	0.0109253
8.472	0.00854492	0.0109619
8.474	-0.00366211	0.0109802
8.476	0.00427246	0.0110107
8.478	-0.00366211	0.0109741
8.48	0.00488281	0.0108704
8.482	-0.00976563	0.0109558
8.484	-0.0128174	0.0109375
8.486	-0.00854492	0.0109009
8.488	-0.00183105	0.0107971
8.49	0.0012207	0.0105835
8.492	0.00427246	0.0105469
8.494	0.00610352	0.0105042
8.496	-0.0164795	0.0106201
8.498	0.010376	0.0106689
8.5	-0.0012207	0.0106262
8.502	0.00366211	0.010498
8.504	-0.00244141	0.0103882
8.506	-0.0128174	0.0102905
8.508	-0.00549316	0.0102783
8.51	0.00732422	0.0101868
8.512	0.0134277	0.0102539
8.514	-0.00305176	0.0102173
8.516	0.000610352	0.0101013
8.518	-0.0012207	0.0101074
8.52	0.00366211	0.0100525
8.522	0.0115967	0.0100952
8.524	0.00610352	0.0101074
8.526	-0.0170898	0.0101379
8.528	0.000610352	0.0100952
8.53	0.00427246	0.00999146
8.532	-0.00244141	0.00997314
8.534	-0.00610352	0.00979004
8.536	0.00183105	0.00961914
8.538	0.0146484	0.00948486
8.54	-0.0158691	0.00918579
8.542	0.00244141	0.00900269
8.544	0.0012207	0.00880127
8.546	0.00671387	0.00875854
8.548	0.020752	0.00871582
8.55	0.0012207	0.0086792
8.552	-0.00244141	0.00859375
8.554	-0.00244141	0.00842896
8.556	0.00793457	0.00817871
8.558	0.00305176	0.00814819
8.56	0.00671387	0.00820313
8.562	-0.0170898	0.00824585
8.564	0.0152588	0.00821533
8.566	0.0195313	0.00811768
8.568	-0.0195313	0.00827637
8.57	-0.0183105	0.00844116
8.572	0.0231934	0.00848389
8.574	0.0372314	0.00864868
8.576	-0.012207	0.0086853
8.578	-0.0152588	0.00882568
8.58	0.0146484	0.00894775
8.582	0.00305176	0.00891113
8.584	0.010376	0.00900879
8.586	-0.00976563	0.00901489
8.588	-0.00366211	0.009021
8.59	0.0109863	0.00907593
8.592	0.00549316	0.00899048
8.594	-0.0164795	0.00900269
8.596	0.00244141	0.00895996
8.598	0.000610352	0.00891113
8.6	0.0109863	0.00883179
8.602	0.010376	0.0086731
8.604	-0.00915527	0.00874023
8.606	-0.0231934	0.00888672
8.608	0.0183105	0.00894775
8.61	0.00305176	0.00893555
8.612	0.0012207	0.00872803
8.614	-0.0250244	0.00889893
