¬í	ECG	¤ß¸õ²v
0	-0.440979	0
0.001	-0.423279	0
0.002	-0.404663	0
0.003	-0.385132	0
0.004	-0.365295	0
0.005	-0.345154	0
0.006	-0.325623	0
0.007	-0.306396	0
0.008	-0.287781	0
0.009	-0.270081	0
0.01	-0.253601	0
0.011	-0.238037	0
0.012	-0.223999	0
0.013	-0.211487	0
0.014	-0.2005	0
0.015	-0.19104	0
0.016	-0.183411	0
0.017	-0.177612	0
0.018	-0.173645	0
0.019	-0.170898	0
0.02	-0.169678	0
0.021	-0.169678	0
0.022	-0.170288	0
0.023	-0.171204	0
0.024	-0.172729	0
0.025	-0.17395	0
0.026	-0.175476	0
0.027	-0.176392	0
0.028	-0.177002	0
0.029	-0.177307	0
0.03	-0.177002	0
0.031	-0.176392	0
0.032	-0.175476	0
0.033	-0.17395	0
0.034	-0.172424	0
0.035	-0.170288	0
0.036	-0.168152	0
0.037	-0.166016	0
0.038	-0.163574	0
0.039	-0.161133	0
0.04	-0.158997	0
0.041	-0.15686	0
0.042	-0.154724	0
0.043	-0.152588	0
0.044	-0.150757	0
0.045	-0.148926	0
0.046	-0.147095	0
0.047	-0.145569	0
0.048	-0.144043	0
0.049	-0.142212	0
0.05	-0.140686	0
0.051	-0.13916	0
0.052	-0.137634	0
0.053	-0.136108	0
0.054	-0.134583	0
0.055	-0.133362	0
0.056	-0.131836	0
0.057	-0.130615	0
0.058	-0.129395	0
0.059	-0.128479	0
0.06	-0.127258	0
0.061	-0.126038	0
0.062	-0.125122	0
0.063	-0.124207	0
0.064	-0.123291	0
0.065	-0.122375	0
0.066	-0.12146	0
0.067	-0.120544	0
0.068	-0.119629	0
0.069	-0.118713	0
0.07	-0.117493	0
0.071	-0.116577	0
0.072	-0.115356	0
0.073	-0.114136	0
0.074	-0.11261	0
0.075	-0.111389	0
0.076	-0.109558	0
0.077	-0.107727	0
0.078	-0.105896	0
0.079	-0.10376	0
0.08	-0.101624	0
0.081	-0.0991821	0
0.082	-0.0970459	0
0.083	-0.0946045	0
0.084	-0.0921631	0
0.085	-0.0897217	0
0.086	-0.0869751	0
0.087	-0.0845337	0
0.088	-0.0820923	0
0.089	-0.0793457	0
0.09	-0.0765991	0
0.091	-0.0738525	0
0.092	-0.071106	0
0.093	-0.0683594	0
0.094	-0.0656128	0
0.095	-0.0628662	0
0.096	-0.0601196	0
0.097	-0.057373	0
0.098	-0.0546265	0
0.099	-0.0521851	0
0.1	-0.0497437	0
0.101	-0.0473022	0
0.102	-0.045166	0
0.103	-0.0427246	0
0.104	-0.0405884	0
0.105	-0.0384521	0
0.106	-0.0363159	0
0.107	-0.0344849	0
0.108	-0.0323486	0
0.109	-0.0305176	0
0.11	-0.0283813	0
0.111	-0.0262451	0
0.112	-0.0241089	0
0.113	-0.0219727	0
0.114	-0.0195313	0
0.115	-0.0167847	0
0.116	-0.0137329	0
0.117	-0.0106812	0
0.118	-0.00762939	0
0.119	-0.00396729	0
0.12	-0.000305176	0
0.121	0.00335693	0
0.122	0.00701904	0
0.123	0.0109863	0
0.124	0.0146484	0
0.125	0.0186157	0
0.126	0.0222778	0
0.127	0.0256348	0
0.128	0.0289917	0
0.129	0.0323486	0
0.13	0.0354004	0
0.131	0.038147	0
0.132	0.0408936	0
0.133	0.043335	0
0.134	0.0460815	0
0.135	0.0485229	0
0.136	0.0509644	0
0.137	0.0537109	0
0.138	0.0561523	0
0.139	0.0588989	0
0.14	0.0616455	0
0.141	0.0646973	0
0.142	0.0674438	0
0.143	0.0708008	0
0.144	0.0738525	0
0.145	0.0772095	0
0.146	0.0805664	0
0.147	0.0839233	0
0.148	0.0875854	0
0.149	0.0906372	0
0.15	0.0939941	0
0.151	0.0967407	0
0.152	0.0994873	0
0.153	0.101929	0
0.154	0.10437	0
0.155	0.106506	0
0.156	0.108337	0
0.157	0.109863	0
0.158	0.111084	0
0.159	0.112	0
0.16	0.112915	0
0.161	0.113525	0
0.162	0.114136	0
0.163	0.114746	0
0.164	0.115356	0
0.165	0.115967	0
0.166	0.116577	0
0.167	0.117493	0
0.168	0.118408	0
0.169	0.119324	0
0.17	0.120544	0
0.171	0.12207	0
0.172	0.123291	0
0.173	0.124817	0
0.174	0.126343	0
0.175	0.128174	0
0.176	0.1297	0
0.177	0.131226	0
0.178	0.132751	0
0.179	0.133972	0
0.18	0.135193	0
0.181	0.136108	0
0.182	0.136719	0
0.183	0.136719	0
0.184	0.136719	0
0.185	0.136108	0
0.186	0.134888	0
0.187	0.133667	0
0.188	0.131836	0
0.189	0.129395	0
0.19	0.126953	0
0.191	0.123901	0
0.192	0.120544	0
0.193	0.116882	0
0.194	0.112915	0
0.195	0.108643	0
0.196	0.10376	0
0.197	0.098877	0
0.198	0.093689	0
0.199	0.0881958	0
0.2	0.0823975	0
0.201	0.0762939	0
0.202	0.0701904	0
0.203	0.0634766	0
0.204	0.0567627	0
0.205	0.0494385	0
0.206	0.0421143	0
0.207	0.0344849	0
0.208	0.0265503	0
0.209	0.0183105	0
0.21	0.0100708	0
0.211	0.00183105	0
0.212	-0.00671387	0
0.213	-0.0152588	0
0.214	-0.0238037	0
0.215	-0.0320435	0
0.216	-0.0402832	0
0.217	-0.0485229	0
0.218	-0.0567627	0
0.219	-0.0643921	0
0.22	-0.0723267	0
0.221	-0.0799561	0
0.222	-0.0872803	0
0.223	-0.0942993	0
0.224	-0.101318	0
0.225	-0.108337	0
0.226	-0.114746	0
0.227	-0.121155	0
0.228	-0.127258	0
0.229	-0.133362	0
0.23	-0.13916	0
0.231	-0.144653	0
0.232	-0.150146	0
0.233	-0.155334	0
0.234	-0.160217	0
0.235	-0.164795	0
0.236	-0.169067	0
0.237	-0.17334	0
0.238	-0.177307	0
0.239	-0.180664	0
0.24	-0.184021	0
0.241	-0.187073	0
0.242	-0.189819	0
0.243	-0.192261	0
0.244	-0.194397	0
0.245	-0.196838	0
0.246	-0.198669	0
0.247	-0.200806	0
0.248	-0.202637	0
0.249	-0.204163	0
0.25	-0.205994	0
0.251	-0.207825	0
0.252	-0.209351	0
0.253	-0.211182	0
0.254	-0.213013	0
0.255	-0.214539	0
0.256	-0.21637	0
0.257	-0.217896	0
0.258	-0.219421	0
0.259	-0.221252	0
0.26	-0.222473	0
0.261	-0.223999	0
0.262	-0.22522	0
0.263	-0.22644	0
0.264	-0.227661	0
0.265	-0.228577	0
0.266	-0.229797	0
0.267	-0.230713	0
0.268	-0.231934	0
0.269	-0.232544	0
0.27	-0.233459	0
0.271	-0.234375	0
0.272	-0.235291	0
0.273	-0.236206	0
0.274	-0.237122	0
0.275	-0.238037	0
0.276	-0.238953	0
0.277	-0.240173	0
0.278	-0.241089	0
0.279	-0.242004	0
0.28	-0.24292	0
0.281	-0.243835	0
0.282	-0.244446	0
0.283	-0.245056	0
0.284	-0.245361	0
0.285	-0.245972	0
0.286	-0.245972	0
0.287	-0.246277	0
0.288	-0.246277	0
0.289	-0.245972	0
0.29	-0.245667	0
0.291	-0.245056	0
0.292	-0.244751	0
0.293	-0.243835	0
0.294	-0.243225	0
0.295	-0.242615	0
0.296	-0.241699	0
0.297	-0.240784	0
0.298	-0.239868	0
0.299	-0.238953	0
0.3	-0.238037	0
0.301	-0.236816	0
0.302	-0.235901	0
0.303	-0.23468	0
0.304	-0.233459	0
0.305	-0.232239	0
0.306	-0.231323	0
0.307	-0.230408	0
0.308	-0.229492	0
0.309	-0.228577	0
0.31	-0.227966	0
0.311	-0.227051	0
0.312	-0.226746	0
0.313	-0.226135	0
0.314	-0.22583	0
0.315	-0.22583	0
0.316	-0.22583	0
0.317	-0.22583	0
0.318	-0.22583	0
0.319	-0.226135	0
0.32	-0.22644	0
0.321	-0.226746	0
0.322	-0.227051	0
0.323	-0.227356	0
0.324	-0.227661	0
0.325	-0.227966	0
0.326	-0.227966	0
0.327	-0.228271	0
0.328	-0.227966	0
0.329	-0.227966	0
0.33	-0.227661	0
0.331	-0.227661	0
0.332	-0.227356	0
0.333	-0.227051	0
0.334	-0.227051	0
0.335	-0.227051	0
0.336	-0.226746	0
0.337	-0.226746	0
0.338	-0.226746	0
0.339	-0.226746	0
0.34	-0.227051	0
0.341	-0.227051	0
0.342	-0.227356	0
0.343	-0.227661	0
0.344	-0.227966	0
0.345	-0.228271	0
0.346	-0.228577	0
0.347	-0.229187	0
0.348	-0.229797	0
0.349	-0.230408	0
0.35	-0.231323	0
0.351	-0.231628	0
0.352	-0.232239	0
0.353	-0.232849	0
0.354	-0.233154	0
0.355	-0.233154	0
0.356	-0.233459	0
0.357	-0.233459	0
0.358	-0.233154	0
0.359	-0.232849	0
0.36	-0.232544	0
0.361	-0.231934	0
0.362	-0.231323	0
0.363	-0.230713	0
0.364	-0.230103	0
0.365	-0.229797	0
0.366	-0.229187	0
0.367	-0.228577	0
0.368	-0.227966	0
0.369	-0.227661	0
0.37	-0.227356	0
0.371	-0.227356	0
0.372	-0.227661	0
0.373	-0.227966	0
0.374	-0.228271	0
0.375	-0.228882	0
0.376	-0.229492	0
0.377	-0.230103	0
0.378	-0.230713	0
0.379	-0.231628	0
0.38	-0.232239	0
0.381	-0.232849	0
0.382	-0.233459	0
0.383	-0.233765	0
0.384	-0.23407	0
0.385	-0.23407	0
0.386	-0.23407	0
0.387	-0.23407	0
0.388	-0.233765	0
0.389	-0.233459	0
0.39	-0.233459	0
0.391	-0.232849	0
0.392	-0.232544	0
0.393	-0.232239	0
0.394	-0.231934	0
0.395	-0.231628	0
0.396	-0.231323	0
0.397	-0.231018	0
0.398	-0.230713	0
0.399	-0.230713	0
0.4	-0.230713	0
0.401	-0.230713	0
0.402	-0.231018	0
0.403	-0.231018	0
0.404	-0.231323	0
0.405	-0.231628	0
0.406	-0.231628	0
0.407	-0.231934	0
0.408	-0.231934	0
0.409	-0.232239	0
0.41	-0.232239	0
0.411	-0.232544	0
0.412	-0.232849	0
0.413	-0.233154	0
0.414	-0.233459	0
0.415	-0.233765	0
0.416	-0.234375	0
0.417	-0.23468	0
0.418	-0.234985	0
0.419	-0.235596	0
0.42	-0.235901	0
0.421	-0.236511	0
0.422	-0.237122	0
0.423	-0.237732	0
0.424	-0.238037	0
0.425	-0.238342	0
0.426	-0.238647	0
0.427	-0.239258	0
0.428	-0.239563	0
0.429	-0.239868	0
0.43	-0.240173	0
0.431	-0.240784	0
0.432	-0.241089	0
0.433	-0.241394	0
0.434	-0.241699	0
0.435	-0.242004	0
0.436	-0.24231	0
0.437	-0.242615	0
0.438	-0.24292	0
0.439	-0.243225	0
0.44	-0.24353	0
0.441	-0.243835	0
0.442	-0.244141	0
0.443	-0.244446	0
0.444	-0.244751	0
0.445	-0.245056	0
0.446	-0.245361	0
0.447	-0.245361	0
0.448	-0.245361	0
0.449	-0.245361	0
0.45	-0.245056	0
0.451	-0.244751	0
0.452	-0.244446	0
0.453	-0.244141	0
0.454	-0.243835	0
0.455	-0.24353	0
0.456	-0.24353	0
0.457	-0.243225	0
0.458	-0.24292	0
0.459	-0.242615	0
0.46	-0.242615	0
0.461	-0.242615	0
0.462	-0.24292	0
0.463	-0.243225	0
0.464	-0.24353	0
0.465	-0.243835	0
0.466	-0.244446	0
0.467	-0.245056	0
0.468	-0.245361	0
0.469	-0.246277	0
0.47	-0.246887	0
0.471	-0.247498	0
0.472	-0.248108	0
0.473	-0.249023	0
0.474	-0.249329	0
0.475	-0.249939	0
0.476	-0.249939	0
0.477	-0.249939	0
0.478	-0.249634	0
0.479	-0.249329	0
0.48	-0.249023	0
0.481	-0.248718	0
0.482	-0.248413	0
0.483	-0.248108	0
0.484	-0.247803	0
0.485	-0.247192	0
0.486	-0.246887	0
0.487	-0.246887	0
0.488	-0.246582	0
0.489	-0.246887	0
0.49	-0.247192	0
0.491	-0.247498	0
0.492	-0.248108	0
0.493	-0.248718	0
0.494	-0.249329	0
0.495	-0.249939	0
0.496	-0.250244	0
0.497	-0.250854	0
0.498	-0.25116	0
0.499	-0.25116	0
0.5	-0.25116	0
0.501	-0.25116	0
0.502	-0.250854	0
0.503	-0.250549	0
0.504	-0.249939	0
0.505	-0.249634	0
0.506	-0.249023	0
0.507	-0.248718	0
0.508	-0.248108	0
0.509	-0.247803	0
0.51	-0.247498	0
0.511	-0.247498	0
0.512	-0.247498	0
0.513	-0.247498	0
0.514	-0.248108	0
0.515	-0.248413	0
0.516	-0.249023	0
0.517	-0.249634	0
0.518	-0.250244	0
0.519	-0.250854	0
0.52	-0.251465	0
0.521	-0.25177	0
0.522	-0.252075	0
0.523	-0.252075	0
0.524	-0.252075	0
0.525	-0.251465	0
0.526	-0.25116	0
0.527	-0.250549	0
0.528	-0.249634	0
0.529	-0.248718	0
0.53	-0.247498	0
0.531	-0.246277	0
0.532	-0.245056	0
0.533	-0.24353	0
0.534	-0.24231	0
0.535	-0.241089	0
0.536	-0.239563	0
0.537	-0.238342	0
0.538	-0.237122	0
0.539	-0.235901	0
0.54	-0.234985	0
0.541	-0.23407	0
0.542	-0.233154	0
0.543	-0.232544	0
0.544	-0.232239	0
0.545	-0.231934	0
0.546	-0.231934	0
0.547	-0.231934	0
0.548	-0.232239	0
0.549	-0.232544	0
0.55	-0.232849	0
0.551	-0.233154	0
0.552	-0.233765	0
0.553	-0.23468	0
0.554	-0.235291	0
0.555	-0.235901	0
0.556	-0.236511	0
0.557	-0.237122	0
0.558	-0.237427	0
0.559	-0.237427	0
0.56	-0.237427	0
0.561	-0.237427	0
0.562	-0.237427	0
0.563	-0.236816	0
0.564	-0.236511	0
0.565	-0.236206	0
0.566	-0.235596	0
0.567	-0.234985	0
0.568	-0.234375	0
0.569	-0.233765	0
0.57	-0.232849	0
0.571	-0.232239	0
0.572	-0.231934	0
0.573	-0.231323	0
0.574	-0.231018	0
0.575	-0.231018	0
0.576	-0.231018	0
0.577	-0.231018	0
0.578	-0.231018	0
0.579	-0.231018	0
0.58	-0.231018	0
0.581	-0.231018	0
0.582	-0.231018	0
0.583	-0.231018	0
0.584	-0.231018	0
0.585	-0.231018	0
0.586	-0.230713	0
0.587	-0.230713	0
0.588	-0.230408	0
0.589	-0.230103	0
0.59	-0.229797	0
0.591	-0.229492	0
0.592	-0.228882	0
0.593	-0.228271	0
0.594	-0.227661	0
0.595	-0.227051	0
0.596	-0.226135	0
0.597	-0.22522	0
0.598	-0.223999	0
0.599	-0.222778	0
0.6	-0.221558	0
0.601	-0.220032	0
0.602	-0.218506	0
0.603	-0.216675	0
0.604	-0.214844	0
0.605	-0.212708	0
0.606	-0.210571	0
0.607	-0.20813	0
0.608	-0.205383	0
0.609	-0.202637	0
0.61	-0.199585	0
0.611	-0.196228	0
0.612	-0.192871	0
0.613	-0.189819	0
0.614	-0.186462	0
0.615	-0.183716	0
0.616	-0.180969	0
0.617	-0.178223	0
0.618	-0.176086	0
0.619	-0.173645	0
0.62	-0.171204	0
0.621	-0.169067	0
0.622	-0.166931	0
0.623	-0.1651	0
0.624	-0.163574	0
0.625	-0.161743	0
0.626	-0.160522	0
0.627	-0.159302	0
0.628	-0.158081	0
0.629	-0.156555	0
0.63	-0.155029	0
0.631	-0.153503	0
0.632	-0.151367	0
0.633	-0.149231	0
0.634	-0.146484	0
0.635	-0.143738	0
0.636	-0.140686	0
0.637	-0.137634	0
0.638	-0.134277	0
0.639	-0.13092	0
0.64	-0.127563	0
0.641	-0.124207	0
0.642	-0.12085	0
0.643	-0.117493	0
0.644	-0.114136	0
0.645	-0.110474	0
0.646	-0.106812	0
0.647	-0.103149	0
0.648	-0.0991821	0
0.649	-0.0952148	0
0.65	-0.0915527	0
0.651	-0.0878906	0
0.652	-0.0845337	0
0.653	-0.0814819	0
0.654	-0.0787354	0
0.655	-0.0762939	0
0.656	-0.0741577	0
0.657	-0.0726318	0
0.658	-0.071106	0
0.659	-0.0701904	0
0.66	-0.0698853	0
0.661	-0.0695801	0
0.662	-0.0698853	0
0.663	-0.0704956	0
0.664	-0.0714111	0
0.665	-0.0726318	0
0.666	-0.0741577	0
0.667	-0.0759888	0
0.668	-0.0778198	0
0.669	-0.0802612	0
0.67	-0.0823975	0
0.671	-0.0848389	0
0.672	-0.0872803	0
0.673	-0.0897217	0
0.674	-0.0921631	0
0.675	-0.0946045	0
0.676	-0.0973511	0
0.677	-0.100403	0
0.678	-0.103455	0
0.679	-0.107422	0
0.68	-0.111389	0
0.681	-0.115967	0
0.682	-0.121155	0
0.683	-0.126648	0
0.684	-0.132446	0
0.685	-0.138245	0
0.686	-0.144653	0
0.687	-0.150757	0
0.688	-0.157471	0
0.689	-0.163879	0
0.69	-0.170288	0
0.691	-0.177002	0
0.692	-0.183411	0
0.693	-0.189514	0
0.694	-0.195313	0
0.695	-0.201111	0
0.696	-0.206604	0
0.697	-0.211487	0
0.698	-0.21637	0
0.699	-0.220947	0
0.7	-0.22522	0
0.701	-0.229187	0
0.702	-0.232849	0
0.703	-0.236206	0
0.704	-0.239258	0
0.705	-0.242004	0
0.706	-0.244446	0
0.707	-0.246582	0
0.708	-0.248413	0
0.709	-0.250244	0
0.71	-0.25177	0
0.711	-0.252686	0
0.712	-0.253601	0
0.713	-0.254517	0
0.714	-0.254822	0
0.715	-0.255127	0
0.716	-0.255127	0
0.717	-0.255127	0
0.718	-0.254822	0
0.719	-0.254517	0
0.72	-0.254211	0
0.721	-0.253906	0
0.722	-0.253296	0
0.723	-0.252991	0
0.724	-0.252686	0
0.725	-0.25238	0
0.726	-0.25177	0
0.727	-0.251465	0
0.728	-0.250854	0
0.729	-0.250549	0
0.73	-0.249939	0
0.731	-0.249634	0
0.732	-0.249329	0
0.733	-0.249329	0
0.734	-0.249023	0
0.735	-0.249023	0
0.736	-0.249023	0
0.737	-0.249023	0
0.738	-0.248718	0
0.739	-0.248718	0
0.74	-0.248718	0
0.741	-0.248413	0
0.742	-0.248413	0
0.743	-0.248718	0
0.744	-0.249023	0
0.745	-0.249329	0
0.746	-0.249634	0
0.747	-0.250244	0
0.748	-0.250854	0
0.749	-0.251465	0
0.75	-0.25238	0
0.751	-0.253601	0
0.752	-0.255127	0
0.753	-0.257263	0
0.754	-0.260315	0
0.755	-0.264282	0
0.756	-0.26886	0
0.757	-0.273743	0
0.758	-0.279541	0
0.759	-0.285339	0
0.76	-0.291443	0
0.761	-0.296936	0
0.762	-0.301819	0
0.763	-0.305786	0
0.764	-0.308228	0
0.765	-0.308838	0
0.766	-0.306702	0
0.767	-0.302124	0
0.768	-0.293884	0
0.769	-0.281677	0
0.77	-0.265503	0
0.771	-0.244751	0
0.772	-0.219116	0
0.773	-0.188599	0
0.774	-0.152893	0
0.775	-0.112305	0
0.776	-0.0662231	0
0.777	-0.0152588	0
0.778	0.0411987	0
0.779	0.102234	0
0.78	0.167847	0
0.781	0.236511	0
0.782	0.307312	0
0.783	0.378113	0
0.784	0.447083	0
0.785	0.512085	0
0.786	0.571594	0
0.787	0.624084	0
0.788	0.66803	0
0.789	0.70282	0
0.79	0.727844	0
0.791	0.742493	0
0.792	0.746765	0
0.793	0.740051	0
0.794	0.722046	0
0.795	0.693054	0
0.796	0.653381	0
0.797	0.603943	0
0.798	0.54657	0
0.799	0.482788	0
0.8	0.415039	0
0.801	0.344849	0
0.802	0.274048	0
0.803	0.204468	0
0.804	0.137024	0
0.805	0.0732422	0
0.806	0.0137329	0
0.807	-0.0418091	0
0.808	-0.0927734	0
0.809	-0.139465	0
0.81	-0.18219	0
0.811	-0.221252	0
0.812	-0.256653	0
0.813	-0.288696	0
0.814	-0.317688	0
0.815	-0.344543	0
0.816	-0.369568	0
0.817	-0.392761	0
0.818	-0.414429	0
0.819	-0.43457	0
0.82	-0.452881	0
0.821	-0.469666	0
0.822	-0.484619	0
0.823	-0.497437	0
0.824	-0.508118	0
0.825	-0.516052	0
0.826	-0.521545	0
0.827	-0.524292	0
0.828	-0.524292	0
0.829	-0.521545	0
0.83	-0.516357	0
0.831	-0.508118	0
0.832	-0.497437	0
0.833	-0.484619	0
0.834	-0.46936	0
0.835	-0.452271	0
0.836	-0.43396	0
0.837	-0.414429	0
0.838	-0.394592	0
0.839	-0.374451	0
0.84	-0.354004	0
0.841	-0.334167	0
0.842	-0.314941	0
0.843	-0.296021	0
0.844	-0.27832	0
0.845	-0.261536	0
0.846	-0.246277	0
0.847	-0.232544	0
0.848	-0.220642	0
0.849	-0.210266	0
0.85	-0.202026	0
0.851	-0.195313	0
0.852	-0.19043	0
0.853	-0.187073	0
0.854	-0.184937	0
0.855	-0.184021	0
0.856	-0.183716	0
0.857	-0.184326	0
0.858	-0.184937	0
0.859	-0.186157	0
0.86	-0.187073	0
0.861	-0.187988	0
0.862	-0.188904	0
0.863	-0.189209	0
0.864	-0.189514	0
0.865	-0.189514	0
0.866	-0.189514	0
0.867	-0.188904	0
0.868	-0.188293	0
0.869	-0.187378	0
0.87	-0.186462	0
0.871	-0.185242	0
0.872	-0.184021	0
0.873	-0.1828	0
0.874	-0.18158	0
0.875	-0.180054	0
0.876	-0.178833	0
0.877	-0.177612	0
0.878	-0.176392	0
0.879	-0.175171	0
0.88	-0.174255	0
0.881	-0.173035	0
0.882	-0.172119	0
0.883	-0.170898	0
0.884	-0.169983	0
0.885	-0.168762	0
0.886	-0.167847	0
0.887	-0.166626	0
0.888	-0.16571	0
0.889	-0.164795	0
0.89	-0.163574	0
0.891	-0.162659	0
0.892	-0.161438	0
0.893	-0.160217	0
0.894	-0.158691	0
0.895	-0.157166	0
0.896	-0.15564	0
0.897	-0.153809	0
0.898	-0.151978	0
0.899	-0.149841	0
0.9	-0.147705	0
0.901	-0.145264	0
0.902	-0.142822	0
0.903	-0.140381	0
0.904	-0.137634	0
0.905	-0.135193	0
0.906	-0.132446	0
0.907	-0.130005	0
0.908	-0.127258	0
0.909	-0.124817	0
0.91	-0.122375	0
0.911	-0.119934	0
0.912	-0.117798	0
0.913	-0.115662	0
0.914	-0.113831	0
0.915	-0.112	0
0.916	-0.110474	0
0.917	-0.108948	0
0.918	-0.107727	0
0.919	-0.106201	0
0.92	-0.10498	0
0.921	-0.103455	0
0.922	-0.101929	0
0.923	-0.100708	0
0.924	-0.0991821	0
0.925	-0.0973511	0
0.926	-0.09552	0
0.927	-0.093689	0
0.928	-0.0915527	0
0.929	-0.0894165	0
0.93	-0.0872803	0
0.931	-0.085144	0
0.932	-0.0827026	0
0.933	-0.0802612	0
0.934	-0.078125	0
0.935	-0.0756836	0
0.936	-0.0732422	0
0.937	-0.071106	0
0.938	-0.0686646	0
0.939	-0.0662231	0
0.94	-0.0637817	0
0.941	-0.0616455	0
0.942	-0.0592041	0
0.943	-0.0570679	0
0.944	-0.0546265	0
0.945	-0.0521851	0
0.946	-0.0497437	0
0.947	-0.0473022	0
0.948	-0.0445557	0
0.949	-0.0418091	0
0.95	-0.0393677	0
0.951	-0.0366211	0
0.952	-0.0338745	0
0.953	-0.0311279	0
0.954	-0.0283813	0
0.955	-0.0256348	0
0.956	-0.022583	0
0.957	-0.0198364	0
0.958	-0.0170898	0
0.959	-0.0140381	0
0.96	-0.0112915	0
0.961	-0.0088501	0
0.962	-0.00610352	0
0.963	-0.00335693	0
0.964	-0.000610352	0
0.965	0.00213623	0
0.966	0.00488281	0
0.967	0.00793457	0
0.968	0.0106812	0
0.969	0.0134277	0
0.97	0.0161743	0
0.971	0.0186157	0
0.972	0.0210571	0
0.973	0.0231934	0
0.974	0.0253296	0
0.975	0.0271606	0
0.976	0.0292969	0
0.977	0.0311279	0
0.978	0.0332642	0
0.979	0.0350952	0
0.98	0.0372314	0
0.981	0.0390625	0
0.982	0.0411987	0
0.983	0.043335	0
0.984	0.0454712	0
0.985	0.0476074	0
0.986	0.0500488	0
0.987	0.0524902	0
0.988	0.0549316	0
0.989	0.057373	0
0.99	0.0595093	0
0.991	0.0616455	0
0.992	0.0634766	0
0.993	0.0653076	0
0.994	0.0665283	0
0.995	0.0674438	0
0.996	0.0683594	0
0.997	0.0686646	0
0.998	0.0689697	0
0.999	0.0689697	0
1	0.0689697	0
1.001	0.0689697	0
1.002	0.0686646	0
1.003	0.0683594	0
1.004	0.0680542	0
1.005	0.0680542	0
1.006	0.067749	0
1.007	0.067749	0
1.008	0.0680542	0
1.009	0.0683594	0
1.01	0.0689697	0
1.011	0.0695801	0
1.012	0.0701904	0
1.013	0.0708008	0
1.014	0.071106	0
1.015	0.0714111	0
1.016	0.0714111	0
1.017	0.0714111	0
1.018	0.0708008	0
1.019	0.0701904	0
1.02	0.0689697	0
1.021	0.0674438	0
1.022	0.0653076	0
1.023	0.0631714	0
1.024	0.0604248	0
1.025	0.0576782	0
1.026	0.0546265	0
1.027	0.0512695	0
1.028	0.0479126	0
1.029	0.0442505	0
1.03	0.0402832	0
1.031	0.0360107	0
1.032	0.0317383	0
1.033	0.0271606	0
1.034	0.0222778	0
1.035	0.017395	0
1.036	0.012207	0
1.037	0.00732422	0
1.038	0.00213623	0
1.039	-0.00335693	0
1.04	-0.00854492	0
1.041	-0.0140381	0
1.042	-0.0198364	0
1.043	-0.0256348	0
1.044	-0.0317383	0
1.045	-0.0378418	0
1.046	-0.0436401	0
1.047	-0.0494385	0
1.048	-0.055542	0
1.049	-0.0613403	0
1.05	-0.0671387	0
1.051	-0.0732422	0
1.052	-0.0790405	0
1.053	-0.0848389	0
1.054	-0.0909424	0
1.055	-0.0967407	0
1.056	-0.102234	0
1.057	-0.108032	0
1.058	-0.113525	0
1.059	-0.119019	0
1.06	-0.124207	0
1.061	-0.129395	0
1.062	-0.134583	0
1.063	-0.139771	0
1.064	-0.144653	0
1.065	-0.149231	0
1.066	-0.153809	0
1.067	-0.158386	0
1.068	-0.162964	0
1.069	-0.167542	0
1.07	-0.171814	0
1.071	-0.176086	0
1.072	-0.180054	0
1.073	-0.184021	0
1.074	-0.187683	0
1.075	-0.191345	0
1.076	-0.195007	0
1.077	-0.198669	0
1.078	-0.201721	0
1.079	-0.205078	0
1.08	-0.207825	0
1.081	-0.210266	0
1.082	-0.212402	0
1.083	-0.214539	0
1.084	-0.215759	0
1.085	-0.21698	0
1.086	-0.217896	0
1.087	-0.218201	0
1.088	-0.218506	0
1.089	-0.218506	0
1.09	-0.218506	0
1.091	-0.218506	0
1.092	-0.218506	0
1.093	-0.218506	0
1.094	-0.218811	0
1.095	-0.219116	0
1.096	-0.219421	0
1.097	-0.220032	0
1.098	-0.220947	0
1.099	-0.221863	0
1.1	-0.223083	0
1.101	-0.223999	0
1.102	-0.22522	0
1.103	-0.22644	0
1.104	-0.227661	0
1.105	-0.228882	0
1.106	-0.229797	0
1.107	-0.230713	0
1.108	-0.231323	0
1.109	-0.231628	0
1.11	-0.231628	0
1.111	-0.231628	0
1.112	-0.231018	0
1.113	-0.230713	0
1.114	-0.230103	0
1.115	-0.229492	0
1.116	-0.228577	0
1.117	-0.227966	0
1.118	-0.227051	0
1.119	-0.22644	0
1.12	-0.22583	0
1.121	-0.225525	0
1.122	-0.224915	0
1.123	-0.224609	0
1.124	-0.224609	0
1.125	-0.224304	0
1.126	-0.223999	0
1.127	-0.223694	0
1.128	-0.223694	0
1.129	-0.223389	0
1.13	-0.223083	0
1.131	-0.223083	0
1.132	-0.222778	0
1.133	-0.222473	0
1.134	-0.222473	0
1.135	-0.222168	0
1.136	-0.221863	0
1.137	-0.221558	0
1.138	-0.220947	0
1.139	-0.220642	0
1.14	-0.220032	0
1.141	-0.219421	0
1.142	-0.218811	0
1.143	-0.218201	0
1.144	-0.21759	0
1.145	-0.217285	0
1.146	-0.216675	0
1.147	-0.21637	0
1.148	-0.216064	0
1.149	-0.215759	0
1.15	-0.215759	0
1.151	-0.215759	0
1.152	-0.215759	0
1.153	-0.216064	0
1.154	-0.21637	0
1.155	-0.21698	0
1.156	-0.21759	0
1.157	-0.218506	0
1.158	-0.219421	0
1.159	-0.220032	0
1.16	-0.220947	0
1.161	-0.221863	0
1.162	-0.222473	0
1.163	-0.223083	0
1.164	-0.223694	0
1.165	-0.224304	0
1.166	-0.224609	0
1.167	-0.224915	0
1.168	-0.224915	0
1.169	-0.224609	0
1.17	-0.224304	0
1.171	-0.223999	0
1.172	-0.223389	0
1.173	-0.223083	0
1.174	-0.222473	0
1.175	-0.222168	0
1.176	-0.221558	0
1.177	-0.221252	0
1.178	-0.220642	0
1.179	-0.220032	0
1.18	-0.219421	0
1.181	-0.218811	0
1.182	-0.218506	0
1.183	-0.217896	0
1.184	-0.21759	0
1.185	-0.21698	0
1.186	-0.21637	0
1.187	-0.216064	0
1.188	-0.215454	0
1.189	-0.215149	0
1.19	-0.214539	0
1.191	-0.214233	0
1.192	-0.213623	0
1.193	-0.213318	0
1.194	-0.213013	0
1.195	-0.213013	0
1.196	-0.212708	0
1.197	-0.212708	0
1.198	-0.212708	0
1.199	-0.212708	0
1.2	-0.213013	0
1.201	-0.213013	0
1.202	-0.213318	0
1.203	-0.213318	0
1.204	-0.213318	0
1.205	-0.213623	0
1.206	-0.213623	0
1.207	-0.213623	0
1.208	-0.213623	0
1.209	-0.213623	0
1.21	-0.213318	0
1.211	-0.213013	0
1.212	-0.212708	0
1.213	-0.212402	0
1.214	-0.212097	0
1.215	-0.211792	0
1.216	-0.211792	0
1.217	-0.211487	0
1.218	-0.211487	0
1.219	-0.211792	0
1.22	-0.212097	0
1.221	-0.212708	0
1.222	-0.213318	0
1.223	-0.213928	0
1.224	-0.214539	0
1.225	-0.215149	0
1.226	-0.215759	0
1.227	-0.216675	0
1.228	-0.217285	0
1.229	-0.21759	0
1.23	-0.217896	0
1.231	-0.218201	0
1.232	-0.217896	0
1.233	-0.21759	0
1.234	-0.21698	0
1.235	-0.216064	0
1.236	-0.215149	0
1.237	-0.213928	0
1.238	-0.212402	0
1.239	-0.211182	0
1.24	-0.209961	0
1.241	-0.20874	0
1.242	-0.20752	0
1.243	-0.206299	0
1.244	-0.205383	0
1.245	-0.204773	0
1.246	-0.204163	0
1.247	-0.203552	0
1.248	-0.203552	0
1.249	-0.203552	0
1.25	-0.203552	0
1.251	-0.204163	0
1.252	-0.204773	0
1.253	-0.205383	0
1.254	-0.206299	0
1.255	-0.206909	0
1.256	-0.207825	0
1.257	-0.208435	0
1.258	-0.209351	0
1.259	-0.209961	0
1.26	-0.210266	0
1.261	-0.210876	0
1.262	-0.211182	0
1.263	-0.211792	0
1.264	-0.212097	0
1.265	-0.212402	0
1.266	-0.212402	0
1.267	-0.212708	0
1.268	-0.212708	0
1.269	-0.212708	0
1.27	-0.213013	0
1.271	-0.213013	0
1.272	-0.213013	0
1.273	-0.213318	0
1.274	-0.213318	0
1.275	-0.213623	0
1.276	-0.213928	0
1.277	-0.214539	0
1.278	-0.214844	0
1.279	-0.215149	0
1.28	-0.215759	0
1.281	-0.216064	0
1.282	-0.216675	0
1.283	-0.217285	0
1.284	-0.21759	0
1.285	-0.218201	0
1.286	-0.218506	0
1.287	-0.219116	0
1.288	-0.219421	0
1.289	-0.219727	0
1.29	-0.220032	0
1.291	-0.220337	0
1.292	-0.220642	0
1.293	-0.220642	0
1.294	-0.220642	0
1.295	-0.220642	0
1.296	-0.220337	0
1.297	-0.219727	0
1.298	-0.219116	0
1.299	-0.218506	0
1.3	-0.21759	0
1.301	-0.216675	0
1.302	-0.216064	0
1.303	-0.215149	0
1.304	-0.214539	0
1.305	-0.213623	0
1.306	-0.213013	0
1.307	-0.212402	0
1.308	-0.212097	0
1.309	-0.211487	0
1.31	-0.211182	0
1.311	-0.211182	0
1.312	-0.210876	0
1.313	-0.211182	0
1.314	-0.211182	0
1.315	-0.211487	0
1.316	-0.211792	0
1.317	-0.212097	0
1.318	-0.212402	0
1.319	-0.212708	0
1.32	-0.212708	0
1.321	-0.212708	0
1.322	-0.212402	0
1.323	-0.212097	0
1.324	-0.211487	0
1.325	-0.210571	0
1.326	-0.209961	0
1.327	-0.20874	0
1.328	-0.207825	0
1.329	-0.206604	0
1.33	-0.205688	0
1.331	-0.204468	0
1.332	-0.203552	0
1.333	-0.202637	0
1.334	-0.201721	0
1.335	-0.200806	0
1.336	-0.2005	0
1.337	-0.19989	0
1.338	-0.19989	0
1.339	-0.19989	0
1.34	-0.200195	0
1.341	-0.2005	0
1.342	-0.201416	0
1.343	-0.202332	0
1.344	-0.203247	0
1.345	-0.204468	0
1.346	-0.205994	0
1.347	-0.207214	0
1.348	-0.20874	0
1.349	-0.210266	0
1.35	-0.211792	0
1.351	-0.213013	0
1.352	-0.214539	0
1.353	-0.215759	0
1.354	-0.216675	0
1.355	-0.21759	0
1.356	-0.218201	0
1.357	-0.218506	0
1.358	-0.218811	0
1.359	-0.218506	0
1.36	-0.217896	0
1.361	-0.217285	0
1.362	-0.216064	0
1.363	-0.214539	0
1.364	-0.212708	0
1.365	-0.210266	0
1.366	-0.207825	0
1.367	-0.204773	0
1.368	-0.201721	0
1.369	-0.198364	0
1.37	-0.194397	0
1.371	-0.19043	0
1.372	-0.186462	0
1.373	-0.18219	0
1.374	-0.178223	0
1.375	-0.17395	0
1.376	-0.169983	0
1.377	-0.166016	0
1.378	-0.162354	0
1.379	-0.158691	0
1.38	-0.155334	0
1.381	-0.151978	0
1.382	-0.148621	0
1.383	-0.145874	0
1.384	-0.143433	0
1.385	-0.140991	0
1.386	-0.138855	0
1.387	-0.136719	0
1.388	-0.134888	0
1.389	-0.133362	0
1.39	-0.131226	0
1.391	-0.129395	0
1.392	-0.126953	0
1.393	-0.124512	0
1.394	-0.121765	0
1.395	-0.119019	0
1.396	-0.115967	0
1.397	-0.11261	0
1.398	-0.109253	0
1.399	-0.105896	0
1.4	-0.102539	0
1.401	-0.098877	0
1.402	-0.0952148	0
1.403	-0.0918579	0
1.404	-0.0881958	0
1.405	-0.0848389	0
1.406	-0.0811768	0
1.407	-0.0775146	0
1.408	-0.0738525	0
1.409	-0.0701904	0
1.41	-0.0665283	0
1.411	-0.0631714	0
1.412	-0.0601196	0
1.413	-0.0570679	0
1.414	-0.0546265	0
1.415	-0.0521851	0
1.416	-0.050354	0
1.417	-0.0488281	0
1.418	-0.0479126	0
1.419	-0.0469971	0
1.42	-0.0466919	0
1.421	-0.0466919	0
1.422	-0.0469971	0
1.423	-0.0476074	0
1.424	-0.0485229	0
1.425	-0.0494385	0
1.426	-0.050354	0
1.427	-0.0515747	0
1.428	-0.0527954	0
1.429	-0.0540161	0
1.43	-0.0549316	0
1.431	-0.0561523	0
1.432	-0.0570679	0
1.433	-0.0579834	0
1.434	-0.0585938	0
1.435	-0.0595093	0
1.436	-0.0604248	0
1.437	-0.0613403	0
1.438	-0.062561	0
1.439	-0.0640869	0
1.44	-0.0665283	0
1.441	-0.0695801	0
1.442	-0.0732422	0
1.443	-0.0778198	0
1.444	-0.083313	0
1.445	-0.0894165	0
1.446	-0.0961304	0
1.447	-0.103455	0
1.448	-0.111084	0
1.449	-0.119324	0
1.45	-0.127258	0
1.451	-0.135498	0
1.452	-0.143738	0
1.453	-0.151672	0
1.454	-0.159607	0
1.455	-0.166931	0
1.456	-0.173645	0
1.457	-0.180054	0
1.458	-0.185852	0
1.459	-0.190735	0
1.46	-0.195007	0
1.461	-0.198669	0
1.462	-0.202026	0
1.463	-0.204773	0
1.464	-0.206909	0
1.465	-0.20874	0
1.466	-0.210266	0
1.467	-0.211182	0
1.468	-0.212097	0
1.469	-0.212708	0
1.47	-0.213318	0
1.471	-0.213928	0
1.472	-0.214233	0
1.473	-0.214539	0
1.474	-0.215149	0
1.475	-0.215454	0
1.476	-0.216064	0
1.477	-0.216675	0
1.478	-0.217285	0
1.479	-0.217896	0
1.48	-0.218506	0
1.481	-0.219116	0
1.482	-0.220032	0
1.483	-0.220642	0
1.484	-0.221558	0
1.485	-0.222168	0
1.486	-0.222778	0
1.487	-0.223694	0
1.488	-0.224304	0
1.489	-0.224915	0
1.49	-0.225525	0
1.491	-0.22583	0
1.492	-0.22644	0
1.493	-0.226746	0
1.494	-0.226746	0
1.495	-0.226746	0
1.496	-0.226746	0
1.497	-0.22644	0
1.498	-0.226135	0
1.499	-0.22583	0
1.5	-0.22522	0
1.501	-0.224609	0
1.502	-0.223999	0
1.503	-0.223389	0
1.504	-0.222778	0
1.505	-0.222168	0
1.506	-0.221558	0
1.507	-0.221252	0
1.508	-0.220947	0
1.509	-0.220947	0
1.51	-0.220947	0
1.511	-0.220947	0
1.512	-0.221252	0
1.513	-0.221863	0
1.514	-0.222778	0
1.515	-0.224609	0
1.516	-0.227356	0
1.517	-0.230713	0
1.518	-0.234985	0
1.519	-0.239868	0
1.52	-0.245361	0
1.521	-0.25116	0
1.522	-0.256958	0
1.523	-0.262756	0
1.524	-0.26825	0
1.525	-0.272522	0
1.526	-0.275574	0
1.527	-0.2771	0
1.528	-0.276489	0
1.529	-0.273132	0
1.53	-0.266724	0
1.531	-0.256958	0
1.532	-0.24292	0
1.533	-0.224304	0
1.534	-0.201416	0
1.535	-0.17334	0
1.536	-0.140381	0
1.537	-0.102234	0
1.538	-0.0588989	0
1.539	-0.010376	0
1.54	0.0436401	0
1.541	0.102539	0
1.542	0.166626	0
1.543	0.234375	0
1.544	0.305481	0
1.545	0.378113	0
1.546	0.450134	0
1.547	0.519714	0
1.548	0.585022	0
1.549	0.644226	0
1.55	0.695801	0
1.551	0.738525	0
1.552	0.77179	0
1.553	0.794983	0
1.554	0.807495	0
1.555	0.809021	0
1.556	0.799255	0
1.557	0.777893	0
1.558	0.744934	0
1.559	0.700989	0
1.56	0.647583	0
1.561	0.586243	0
1.562	0.518799	0
1.563	0.447388	0
1.564	0.373535	78.637
1.565	0.299072	78.637
1.566	0.22583	78.637
1.567	0.155334	78.637
1.568	0.0878906	78.637
1.569	0.0244141	78.637
1.57	-0.0350952	78.637
1.571	-0.090332	78.637
1.572	-0.140991	78.637
1.573	-0.187683	78.637
1.574	-0.229797	78.637
1.575	-0.267944	78.637
1.576	-0.302429	78.637
1.577	-0.333557	78.637
1.578	-0.361938	78.637
1.579	-0.387573	78.637
1.58	-0.411072	78.637
1.581	-0.432129	78.637
1.582	-0.45105	78.637
1.583	-0.467529	78.637
1.584	-0.481873	78.637
1.585	-0.493469	78.637
1.586	-0.502625	78.637
1.587	-0.508728	78.637
1.588	-0.51239	78.637
1.589	-0.513306	78.637
1.59	-0.511475	78.637
1.591	-0.506592	78.637
1.592	-0.499268	78.637
1.593	-0.489197	78.637
1.594	-0.476685	78.637
1.595	-0.462036	78.637
1.596	-0.445251	78.637
1.597	-0.426636	78.637
1.598	-0.406799	78.637
1.599	-0.386047	78.637
1.6	-0.36499	78.637
1.601	-0.343628	78.637
1.602	-0.322571	78.637
1.603	-0.302124	78.637
1.604	-0.282288	78.637
1.605	-0.263672	78.637
1.606	-0.246277	78.637
1.607	-0.230103	78.637
1.608	-0.215454	78.637
1.609	-0.202942	78.637
1.61	-0.191956	78.637
1.611	-0.183105	78.637
1.612	-0.176392	78.637
1.613	-0.171204	78.637
1.614	-0.167542	78.637
1.615	-0.16571	78.637
1.616	-0.164795	78.637
1.617	-0.164795	78.637
1.618	-0.16571	78.637
1.619	-0.166931	78.637
1.62	-0.168457	78.637
1.621	-0.169983	78.637
1.622	-0.171204	78.637
1.623	-0.172424	78.637
1.624	-0.173035	78.637
1.625	-0.173645	78.637
1.626	-0.173645	78.637
1.627	-0.17334	78.637
1.628	-0.173035	78.637
1.629	-0.172119	78.637
1.63	-0.171204	78.637
1.631	-0.169983	78.637
1.632	-0.168457	78.637
1.633	-0.166931	78.637
1.634	-0.16571	78.637
1.635	-0.164185	78.637
1.636	-0.162659	78.637
1.637	-0.161438	78.637
1.638	-0.159912	78.637
1.639	-0.158386	78.637
1.64	-0.15686	78.637
1.641	-0.155334	78.637
1.642	-0.153503	78.637
1.643	-0.151978	78.637
1.644	-0.150146	78.637
1.645	-0.148315	78.637
1.646	-0.146484	78.637
1.647	-0.144653	78.637
1.648	-0.142822	78.637
1.649	-0.141296	78.637
1.65	-0.139465	78.637
1.651	-0.137634	78.637
1.652	-0.135803	78.637
1.653	-0.133972	78.637
1.654	-0.132446	78.637
1.655	-0.130615	78.637
1.656	-0.128784	78.637
1.657	-0.126953	78.637
1.658	-0.125122	78.637
1.659	-0.122986	78.637
1.66	-0.121155	78.637
1.661	-0.119324	78.637
1.662	-0.117188	78.637
1.663	-0.115356	78.637
1.664	-0.112915	78.637
1.665	-0.110779	78.637
1.666	-0.108337	78.637
1.667	-0.105591	78.637
1.668	-0.103149	78.637
1.669	-0.100403	78.637
1.67	-0.0976563	78.637
1.671	-0.0952148	78.637
1.672	-0.0924683	78.637
1.673	-0.0900269	78.637
1.674	-0.0875854	78.637
1.675	-0.085144	78.637
1.676	-0.0830078	78.637
1.677	-0.0808716	78.637
1.678	-0.0787354	78.637
1.679	-0.0765991	78.637
1.68	-0.0747681	78.637
1.681	-0.072937	78.637
1.682	-0.071106	78.637
1.683	-0.0695801	78.637
1.684	-0.067749	78.637
1.685	-0.0662231	78.637
1.686	-0.0643921	78.637
1.687	-0.062561	78.637
1.688	-0.06073	78.637
1.689	-0.0588989	78.637
1.69	-0.0567627	78.637
1.691	-0.0543213	78.637
1.692	-0.0518799	78.637
1.693	-0.0494385	78.637
1.694	-0.0469971	78.637
1.695	-0.0445557	78.637
1.696	-0.0418091	78.637
1.697	-0.0390625	78.637
1.698	-0.0366211	78.637
1.699	-0.0338745	78.637
1.7	-0.0314331	78.637
1.701	-0.0289917	78.637
1.702	-0.0262451	78.637
1.703	-0.0238037	78.637
1.704	-0.0213623	78.637
1.705	-0.0189209	78.637
1.706	-0.0164795	78.637
1.707	-0.0140381	78.637
1.708	-0.0115967	78.637
1.709	-0.00915527	78.637
1.71	-0.00671387	78.637
1.711	-0.00427246	78.637
1.712	-0.00152588	78.637
1.713	0.000915527	78.637
1.714	0.00366211	78.637
1.715	0.00640869	78.637
1.716	0.00946045	78.637
1.717	0.0125122	78.637
1.718	0.0158691	78.637
1.719	0.0192261	78.637
1.72	0.022583	78.637
1.721	0.0259399	78.637
1.722	0.0292969	78.637
1.723	0.0326538	78.637
1.724	0.0363159	78.637
1.725	0.0396729	78.637
1.726	0.0430298	78.637
1.727	0.0466919	78.637
1.728	0.0500488	78.637
1.729	0.0534058	78.637
1.73	0.0567627	78.637
1.731	0.0598145	78.637
1.732	0.0628662	78.637
1.733	0.065918	78.637
1.734	0.0689697	78.637
1.735	0.0717163	78.637
1.736	0.0744629	78.637
1.737	0.0772095	78.637
1.738	0.0799561	78.637
1.739	0.0823975	78.637
1.74	0.085144	78.637
1.741	0.0875854	78.637
1.742	0.0900269	78.637
1.743	0.0924683	78.637
1.744	0.0952148	78.637
1.745	0.0976563	78.637
1.746	0.100098	78.637
1.747	0.102234	78.637
1.748	0.104675	78.637
1.749	0.106812	78.637
1.75	0.108948	78.637
1.751	0.111084	78.637
1.752	0.112915	78.637
1.753	0.114746	78.637
1.754	0.116272	78.637
1.755	0.117798	78.637
1.756	0.119019	78.637
1.757	0.120239	78.637
1.758	0.12146	78.637
1.759	0.122375	78.637
1.76	0.123291	78.637
1.761	0.124207	78.637
1.762	0.124817	78.637
1.763	0.125427	78.637
1.764	0.126038	78.637
1.765	0.126953	78.637
1.766	0.127563	78.637
1.767	0.128479	78.637
1.768	0.129395	78.637
1.769	0.13031	78.637
1.77	0.131226	78.637
1.771	0.131836	78.637
1.772	0.132751	78.637
1.773	0.133057	78.637
1.774	0.133667	78.637
1.775	0.133667	78.637
1.776	0.133667	78.637
1.777	0.133362	78.637
1.778	0.132751	78.637
1.779	0.131836	78.637
1.78	0.130615	78.637
1.781	0.128784	78.637
1.782	0.126648	78.637
1.783	0.124207	78.637
1.784	0.121155	78.637
1.785	0.118103	78.637
1.786	0.114441	78.637
1.787	0.110779	78.637
1.788	0.106506	78.637
1.789	0.102234	78.637
1.79	0.0979614	78.637
1.791	0.0933838	78.637
1.792	0.0888062	78.637
1.793	0.0839233	78.637
1.794	0.0787354	78.637
1.795	0.0738525	78.637
1.796	0.0683594	78.637
1.797	0.0628662	78.637
1.798	0.0570679	78.637
1.799	0.0509644	78.637
1.8	0.0448608	78.637
1.801	0.038147	78.637
1.802	0.0317383	78.637
1.803	0.0247192	78.637
1.804	0.0177002	78.637
1.805	0.010376	78.637
1.806	0.00274658	78.637
1.807	-0.00488281	78.637
1.808	-0.0125122	78.637
1.809	-0.0201416	78.637
1.81	-0.0280762	78.637
1.811	-0.0360107	78.637
1.812	-0.0436401	78.637
1.813	-0.0512695	78.637
1.814	-0.0588989	78.637
1.815	-0.0662231	78.637
1.816	-0.0732422	78.637
1.817	-0.0799561	78.637
1.818	-0.0863647	78.637
1.819	-0.0924683	78.637
1.82	-0.0982666	78.637
1.821	-0.104065	78.637
1.822	-0.109558	78.637
1.823	-0.114441	78.637
1.824	-0.119629	78.637
1.825	-0.124512	78.637
1.826	-0.129089	78.637
1.827	-0.133362	78.637
1.828	-0.137634	78.637
1.829	-0.141907	78.637
1.83	-0.145874	78.637
1.831	-0.149841	78.637
1.832	-0.153503	78.637
1.833	-0.157166	78.637
1.834	-0.160828	78.637
1.835	-0.164185	78.637
1.836	-0.167542	78.637
1.837	-0.170593	78.637
1.838	-0.173645	78.637
1.839	-0.176392	78.637
1.84	-0.179138	78.637
1.841	-0.18158	78.637
1.842	-0.184021	78.637
1.843	-0.186462	78.637
1.844	-0.188599	78.637
1.845	-0.190735	78.637
1.846	-0.192566	78.637
1.847	-0.194397	78.637
1.848	-0.196228	78.637
1.849	-0.197754	78.637
1.85	-0.199585	78.637
1.851	-0.201111	78.637
1.852	-0.202637	78.637
1.853	-0.204163	78.637
1.854	-0.205383	78.637
1.855	-0.206909	78.637
1.856	-0.20813	78.637
1.857	-0.209045	78.637
1.858	-0.210266	78.637
1.859	-0.211182	78.637
1.86	-0.211792	78.637
1.861	-0.212402	78.637
1.862	-0.213013	78.637
1.863	-0.213623	78.637
1.864	-0.213928	78.637
1.865	-0.214233	78.637
1.866	-0.214844	78.637
1.867	-0.215149	78.637
1.868	-0.215149	78.637
1.869	-0.215454	78.637
1.87	-0.215759	78.637
1.871	-0.215759	78.637
1.872	-0.216064	78.637
1.873	-0.21637	78.637
1.874	-0.21637	78.637
1.875	-0.216675	78.637
1.876	-0.216675	78.637
1.877	-0.21698	78.637
1.878	-0.216675	78.637
1.879	-0.216675	78.637
1.88	-0.21637	78.637
1.881	-0.216064	78.637
1.882	-0.215759	78.637
1.883	-0.215454	78.637
1.884	-0.214844	78.637
1.885	-0.214539	78.637
1.886	-0.213928	78.637
1.887	-0.213318	78.637
1.888	-0.213013	78.637
1.889	-0.212402	78.637
1.89	-0.211792	78.637
1.891	-0.211182	78.637
1.892	-0.210571	78.637
1.893	-0.210266	78.637
1.894	-0.209656	78.637
1.895	-0.209351	78.637
1.896	-0.209045	78.637
1.897	-0.20874	78.637
1.898	-0.208435	78.637
1.899	-0.208435	78.637
1.9	-0.20813	78.637
1.901	-0.20813	78.637
1.902	-0.20813	78.637
1.903	-0.207825	78.637
1.904	-0.207825	78.637
1.905	-0.207825	78.637
1.906	-0.207825	78.637
1.907	-0.20813	78.637
1.908	-0.208435	78.637
1.909	-0.20874	78.637
1.91	-0.209351	78.637
1.911	-0.209656	78.637
1.912	-0.210266	78.637
1.913	-0.210571	78.637
1.914	-0.210876	78.637
1.915	-0.210876	78.637
1.916	-0.211182	78.637
1.917	-0.210876	78.637
1.918	-0.210876	78.637
1.919	-0.210266	78.637
1.92	-0.209656	78.637
1.921	-0.209045	78.637
1.922	-0.20813	78.637
1.923	-0.207214	78.637
1.924	-0.205994	78.637
1.925	-0.204773	78.637
1.926	-0.203857	78.637
1.927	-0.202637	78.637
1.928	-0.201416	78.637
1.929	-0.200195	78.637
1.93	-0.19928	78.637
1.931	-0.198669	78.637
1.932	-0.198059	78.637
1.933	-0.197449	78.637
1.934	-0.197449	78.637
1.935	-0.197449	78.637
1.936	-0.197754	78.637
1.937	-0.198059	78.637
1.938	-0.198364	78.637
1.939	-0.198975	78.637
1.94	-0.19989	78.637
1.941	-0.2005	78.637
1.942	-0.201111	78.637
1.943	-0.201721	78.637
1.944	-0.202332	78.637
1.945	-0.202637	78.637
1.946	-0.202942	78.637
1.947	-0.203247	78.637
1.948	-0.203552	78.637
1.949	-0.203857	78.637
1.95	-0.203857	78.637
1.951	-0.204163	78.637
1.952	-0.204163	78.637
1.953	-0.204163	78.637
1.954	-0.204163	78.637
1.955	-0.204468	78.637
1.956	-0.204468	78.637
1.957	-0.204468	78.637
1.958	-0.204773	78.637
1.959	-0.204773	78.637
1.96	-0.205078	78.637
1.961	-0.205078	78.637
1.962	-0.205078	78.637
1.963	-0.205078	78.637
1.964	-0.204773	78.637
1.965	-0.204468	78.637
1.966	-0.203857	78.637
1.967	-0.203247	78.637
1.968	-0.202637	78.637
1.969	-0.201721	78.637
1.97	-0.201111	78.637
1.971	-0.2005	78.637
1.972	-0.199585	78.637
1.973	-0.198975	78.637
1.974	-0.198059	78.637
1.975	-0.197449	78.637
1.976	-0.196838	78.637
1.977	-0.196228	78.637
1.978	-0.195618	78.637
1.979	-0.195007	78.637
1.98	-0.194702	78.637
1.981	-0.194092	78.637
1.982	-0.193787	78.637
1.983	-0.193176	78.637
1.984	-0.192871	78.637
1.985	-0.192261	78.637
1.986	-0.19165	78.637
1.987	-0.19104	78.637
1.988	-0.190125	78.637
1.989	-0.189514	78.637
1.99	-0.188904	78.637
1.991	-0.188293	78.637
1.992	-0.187378	78.637
1.993	-0.187073	78.637
1.994	-0.186462	78.637
1.995	-0.186157	78.637
1.996	-0.186157	78.637
1.997	-0.186462	78.637
1.998	-0.186768	78.637
1.999	-0.187073	78.637
2	-0.187683	78.637
2.001	-0.188599	78.637
2.002	-0.189514	78.637
2.003	-0.19043	78.637
2.004	-0.191345	78.637
2.005	-0.192566	78.637
2.006	-0.193481	78.637
2.007	-0.194702	78.637
2.008	-0.195618	78.637
2.009	-0.196533	78.637
2.01	-0.197144	78.637
2.011	-0.197754	78.637
2.012	-0.198364	78.637
2.013	-0.198669	78.637
2.014	-0.198975	78.637
2.015	-0.198975	78.637
2.016	-0.198669	78.637
2.017	-0.198364	78.637
2.018	-0.197754	78.637
2.019	-0.197449	78.637
2.02	-0.196533	78.637
2.021	-0.195923	78.637
2.022	-0.195007	78.637
2.023	-0.194092	78.637
2.024	-0.193176	78.637
2.025	-0.192261	78.637
2.026	-0.19104	78.637
2.027	-0.190125	78.637
2.028	-0.189514	78.637
2.029	-0.188904	78.637
2.03	-0.188293	78.637
2.031	-0.187988	78.637
2.032	-0.187988	78.637
2.033	-0.187988	78.637
2.034	-0.188293	78.637
2.035	-0.188599	78.637
2.036	-0.189209	78.637
2.037	-0.189819	78.637
2.038	-0.19043	78.637
2.039	-0.191345	78.637
2.04	-0.192261	78.637
2.041	-0.193176	78.637
2.042	-0.194092	78.637
2.043	-0.194702	78.637
2.044	-0.195313	78.637
2.045	-0.195923	78.637
2.046	-0.196228	78.637
2.047	-0.196533	78.637
2.048	-0.196533	78.637
2.049	-0.196533	78.637
2.05	-0.196533	78.637
2.051	-0.196228	78.637
2.052	-0.195923	78.637
2.053	-0.195618	78.637
2.054	-0.195007	78.637
2.055	-0.194397	78.637
2.056	-0.194092	78.637
2.057	-0.193481	78.637
2.058	-0.192871	78.637
2.059	-0.192566	78.637
2.06	-0.191956	78.637
2.061	-0.19165	78.637
2.062	-0.191345	78.637
2.063	-0.19104	78.637
2.064	-0.190735	78.637
2.065	-0.19043	78.637
2.066	-0.19043	78.637
2.067	-0.190125	78.637
2.068	-0.189819	78.637
2.069	-0.189514	78.637
2.07	-0.189514	78.637
2.071	-0.189209	78.637
2.072	-0.188904	78.637
2.073	-0.188904	78.637
2.074	-0.188599	78.637
2.075	-0.188293	78.637
2.076	-0.188293	78.637
2.077	-0.187988	78.637
2.078	-0.187683	78.637
2.079	-0.187683	78.637
2.08	-0.187378	78.637
2.081	-0.187073	78.637
2.082	-0.186768	78.637
2.083	-0.186157	78.637
2.084	-0.185547	78.637
2.085	-0.184937	78.637
2.086	-0.184326	78.637
2.087	-0.183716	78.637
2.088	-0.183105	78.637
2.089	-0.182495	78.637
2.09	-0.18158	78.637
2.091	-0.181274	78.637
2.092	-0.180664	78.637
2.093	-0.180054	78.637
2.094	-0.179749	78.637
2.095	-0.179443	78.637
2.096	-0.179138	78.637
2.097	-0.179138	78.637
2.098	-0.179138	78.637
2.099	-0.179138	78.637
2.1	-0.179443	78.637
2.101	-0.179749	78.637
2.102	-0.180054	78.637
2.103	-0.180359	78.637
2.104	-0.180664	78.637
2.105	-0.180969	78.637
2.106	-0.181274	78.637
2.107	-0.181274	78.637
2.108	-0.181274	78.637
2.109	-0.180969	78.637
2.11	-0.180664	78.637
2.111	-0.180054	78.637
2.112	-0.179443	78.637
2.113	-0.178833	78.637
2.114	-0.177917	78.637
2.115	-0.177002	78.637
2.116	-0.176086	78.637
2.117	-0.175171	78.637
2.118	-0.174255	78.637
2.119	-0.17334	78.637
2.12	-0.172424	78.637
2.121	-0.171814	78.637
2.122	-0.171204	78.637
2.123	-0.170593	78.637
2.124	-0.170288	78.637
2.125	-0.169983	78.637
2.126	-0.169983	78.637
2.127	-0.169983	78.637
2.128	-0.169983	78.637
2.129	-0.170288	78.637
2.13	-0.170288	78.637
2.131	-0.170593	78.637
2.132	-0.170898	78.637
2.133	-0.171204	78.637
2.134	-0.171204	78.637
2.135	-0.171509	78.637
2.136	-0.171509	78.637
2.137	-0.171509	78.637
2.138	-0.171509	78.637
2.139	-0.171204	78.637
2.14	-0.170898	78.637
2.141	-0.170593	78.637
2.142	-0.169983	78.637
2.143	-0.169373	78.637
2.144	-0.169067	78.637
2.145	-0.168457	78.637
2.146	-0.167847	78.637
2.147	-0.167542	78.637
2.148	-0.166931	78.637
2.149	-0.166626	78.637
2.15	-0.166626	78.637
2.151	-0.166321	78.637
2.152	-0.166321	78.637
2.153	-0.166626	78.637
2.154	-0.166626	78.637
2.155	-0.167236	78.637
2.156	-0.167847	78.637
2.157	-0.168457	78.637
2.158	-0.169067	78.637
2.159	-0.169678	78.637
2.16	-0.170593	78.637
2.161	-0.171204	78.637
2.162	-0.172119	78.637
2.163	-0.172729	78.637
2.164	-0.17334	78.637
2.165	-0.17395	78.637
2.166	-0.174255	78.637
2.167	-0.174561	78.637
2.168	-0.174866	78.637
2.169	-0.174866	78.637
2.17	-0.174866	78.637
2.171	-0.174866	78.637
2.172	-0.174561	78.637
2.173	-0.17395	78.637
2.174	-0.17334	78.637
2.175	-0.172729	78.637
2.176	-0.172119	78.637
2.177	-0.171204	78.637
2.178	-0.170288	78.637
2.179	-0.169373	78.637
2.18	-0.168152	78.637
2.181	-0.166931	78.637
2.182	-0.16571	78.637
2.183	-0.164185	78.637
2.184	-0.162964	78.637
2.185	-0.161743	78.637
2.186	-0.160522	78.637
2.187	-0.159302	78.637
2.188	-0.158081	78.637
2.189	-0.15686	78.637
2.19	-0.155945	78.637
2.191	-0.154724	78.637
2.192	-0.153809	78.637
2.193	-0.153198	78.637
2.194	-0.152588	78.637
2.195	-0.152283	78.637
2.196	-0.151672	78.637
2.197	-0.151672	78.637
2.198	-0.151672	78.637
2.199	-0.151672	78.637
2.2	-0.151978	78.637
2.201	-0.152283	78.637
2.202	-0.152893	78.637
2.203	-0.153198	78.637
2.204	-0.153809	78.637
2.205	-0.154419	78.637
2.206	-0.155029	78.637
2.207	-0.15564	78.637
2.208	-0.15625	78.637
2.209	-0.15686	78.637
2.21	-0.157166	78.637
2.211	-0.157776	78.637
2.212	-0.158081	78.637
2.213	-0.158386	78.637
2.214	-0.158386	78.637
2.215	-0.158386	78.637
2.216	-0.158386	78.637
2.217	-0.158081	78.637
2.218	-0.157776	78.637
2.219	-0.15686	78.637
2.22	-0.15625	78.637
2.221	-0.155029	78.637
2.222	-0.153809	78.637
2.223	-0.151978	78.637
2.224	-0.150146	78.637
2.225	-0.14801	78.637
2.226	-0.145569	78.637
2.227	-0.142822	78.637
2.228	-0.140076	78.637
2.229	-0.137024	78.637
2.23	-0.133667	78.637
2.231	-0.130005	78.637
2.232	-0.126343	78.637
2.233	-0.122681	78.637
2.234	-0.118713	78.637
2.235	-0.115051	78.637
2.236	-0.111389	78.637
2.237	-0.107727	78.637
2.238	-0.10437	78.637
2.239	-0.101013	78.637
2.24	-0.0979614	78.637
2.241	-0.0949097	78.637
2.242	-0.0921631	78.637
2.243	-0.0897217	78.637
2.244	-0.0872803	78.637
2.245	-0.085144	78.637
2.246	-0.083313	78.637
2.247	-0.0814819	78.637
2.248	-0.0796509	78.637
2.249	-0.0778198	78.637
2.25	-0.0759888	78.637
2.251	-0.0738525	78.637
2.252	-0.0717163	78.637
2.253	-0.0695801	78.637
2.254	-0.0671387	78.637
2.255	-0.0646973	78.637
2.256	-0.0619507	78.637
2.257	-0.0592041	78.637
2.258	-0.0564575	78.637
2.259	-0.0534058	78.637
2.26	-0.0506592	78.637
2.261	-0.0476074	78.637
2.262	-0.0448608	78.637
2.263	-0.0418091	78.637
2.264	-0.0387573	78.637
2.265	-0.0357056	78.637
2.266	-0.0323486	78.637
2.267	-0.0292969	78.637
2.268	-0.0259399	78.637
2.269	-0.0228882	78.637
2.27	-0.0198364	78.637
2.271	-0.0170898	78.637
2.272	-0.0146484	78.637
2.273	-0.012207	78.637
2.274	-0.0100708	78.637
2.275	-0.00823975	78.637
2.276	-0.00671387	78.637
2.277	-0.00518799	78.637
2.278	-0.00396729	78.637
2.279	-0.00305176	78.637
2.28	-0.00213623	78.637
2.281	-0.00152588	78.637
2.282	-0.0012207	78.637
2.283	-0.000915527	78.637
2.284	-0.000915527	78.637
2.285	-0.0012207	78.637
2.286	-0.00152588	78.637
2.287	-0.00213623	78.637
2.288	-0.00274658	78.637
2.289	-0.00396729	78.637
2.29	-0.00518799	78.637
2.291	-0.00671387	78.637
2.292	-0.00823975	78.637
2.293	-0.0100708	78.637
2.294	-0.012207	78.637
2.295	-0.0146484	78.637
2.296	-0.0177002	78.637
2.297	-0.0210571	78.637
2.298	-0.0250244	78.637
2.299	-0.0296021	78.637
2.3	-0.03479	78.637
2.301	-0.0405884	78.637
2.302	-0.0469971	78.637
2.303	-0.0540161	78.637
2.304	-0.0613403	78.637
2.305	-0.0686646	78.637
2.306	-0.0762939	78.637
2.307	-0.0842285	78.637
2.308	-0.0921631	78.637
2.309	-0.0997925	78.637
2.31	-0.107422	78.637
2.311	-0.115051	78.637
2.312	-0.12207	78.637
2.313	-0.128784	78.637
2.314	-0.134888	78.637
2.315	-0.140686	78.637
2.316	-0.145874	78.637
2.317	-0.150452	78.637
2.318	-0.154114	78.637
2.319	-0.157471	78.637
2.32	-0.160522	78.637
2.321	-0.162659	78.637
2.322	-0.164795	78.637
2.323	-0.166016	78.637
2.324	-0.167236	78.637
2.325	-0.168152	78.637
2.326	-0.168762	78.637
2.327	-0.169067	78.637
2.328	-0.169373	78.637
2.329	-0.169678	78.637
2.33	-0.169678	78.637
2.331	-0.169983	78.637
2.332	-0.170288	78.637
2.333	-0.170898	78.637
2.334	-0.171204	78.637
2.335	-0.171814	78.637
2.336	-0.172424	78.637
2.337	-0.173035	78.637
2.338	-0.173645	78.637
2.339	-0.174561	78.637
2.34	-0.175476	78.637
2.341	-0.176086	78.637
2.342	-0.177002	78.637
2.343	-0.177917	78.637
2.344	-0.178528	78.637
2.345	-0.179138	78.637
2.346	-0.179749	78.637
2.347	-0.180359	78.637
2.348	-0.180969	78.637
2.349	-0.181274	78.637
2.35	-0.181885	78.637
2.351	-0.18219	78.637
2.352	-0.182495	78.637
2.353	-0.182495	78.637
2.354	-0.182495	78.637
2.355	-0.182495	78.637
2.356	-0.182495	78.637
2.357	-0.18219	78.637
2.358	-0.18219	78.637
2.359	-0.181885	78.637
2.36	-0.181274	78.637
2.361	-0.180664	78.637
2.362	-0.180054	78.637
2.363	-0.179443	78.637
2.364	-0.178528	78.637
2.365	-0.177917	78.637
2.366	-0.177002	78.637
2.367	-0.176086	78.637
2.368	-0.175476	78.637
2.369	-0.174866	78.637
2.37	-0.174255	78.637
2.371	-0.174255	78.637
2.372	-0.174561	78.637
2.373	-0.175781	78.637
2.374	-0.177612	78.637
2.375	-0.180359	78.637
2.376	-0.184021	78.637
2.377	-0.188293	78.637
2.378	-0.193481	78.637
2.379	-0.198669	78.637
2.38	-0.204163	78.637
2.381	-0.209351	78.637
2.382	-0.213928	78.637
2.383	-0.217896	78.637
2.384	-0.220032	78.637
2.385	-0.220337	78.637
2.386	-0.218506	78.637
2.387	-0.213928	78.637
2.388	-0.205688	78.637
2.389	-0.193787	78.637
2.39	-0.177307	78.637
2.391	-0.156555	78.637
2.392	-0.130615	78.637
2.393	-0.0997925	78.637
2.394	-0.0637817	78.637
2.395	-0.022583	78.637
2.396	0.0238037	78.637
2.397	0.0753784	78.637
2.398	0.132141	78.637
2.399	0.193787	78.637
2.4	0.259705	78.637
2.401	0.32959	78.637
2.402	0.402222	78.637
2.403	0.475464	78.637
2.404	0.547485	78.637
2.405	0.61676	78.637
2.406	0.681152	78.637
2.407	0.739441	78.637
2.408	0.7901	78.637
2.409	0.831604	78.637
2.41	0.863342	78.637
2.411	0.884705	78.637
2.412	0.895386	78.637
2.413	0.894775	78.637
2.414	0.882874	78.637
2.415	0.859375	78.637
2.416	0.824585	78.637
2.417	0.779114	78.637
2.418	0.723877	78.637
2.419	0.661011	78.637
2.42	0.591431	78.637
2.421	0.516968	78.637
2.422	0.440063	69.9301
2.423	0.361938	69.9301
2.424	0.284424	69.9301
2.425	0.208435	69.9301
2.426	0.135498	69.9301
2.427	0.0656128	69.9301
2.428	-0.000610352	69.9301
2.429	-0.062561	69.9301
2.43	-0.119934	69.9301
2.431	-0.172424	69.9301
2.432	-0.220337	69.9301
2.433	-0.263672	69.9301
2.434	-0.302124	69.9301
2.435	-0.336609	69.9301
2.436	-0.367126	69.9301
2.437	-0.393677	69.9301
2.438	-0.416565	69.9301
2.439	-0.435486	69.9301
2.44	-0.450745	69.9301
2.441	-0.462341	69.9301
2.442	-0.470581	69.9301
2.443	-0.475159	69.9301
2.444	-0.476685	69.9301
2.445	-0.474854	69.9301
2.446	-0.470581	69.9301
2.447	-0.463257	69.9301
2.448	-0.453796	69.9301
2.449	-0.441589	69.9301
2.45	-0.427551	69.9301
2.451	-0.411682	69.9301
2.452	-0.393982	69.9301
2.453	-0.375061	69.9301
2.454	-0.355225	69.9301
2.455	-0.334778	69.9301
2.456	-0.314331	69.9301
2.457	-0.293884	69.9301
2.458	-0.274048	69.9301
2.459	-0.254822	69.9301
2.46	-0.236206	69.9301
2.461	-0.218811	69.9301
2.462	-0.202637	69.9301
2.463	-0.187683	69.9301
2.464	-0.17395	69.9301
2.465	-0.162048	69.9301
2.466	-0.151367	69.9301
2.467	-0.142822	69.9301
2.468	-0.135803	69.9301
2.469	-0.13031	69.9301
2.47	-0.126343	69.9301
2.471	-0.123901	69.9301
2.472	-0.122375	69.9301
2.473	-0.12207	69.9301
2.474	-0.122375	69.9301
2.475	-0.122986	69.9301
2.476	-0.123901	69.9301
2.477	-0.125122	69.9301
2.478	-0.126343	69.9301
2.479	-0.126953	69.9301
2.48	-0.127563	69.9301
2.481	-0.127869	69.9301
2.482	-0.127563	69.9301
2.483	-0.127258	69.9301
2.484	-0.126343	69.9301
2.485	-0.125427	69.9301
2.486	-0.123901	69.9301
2.487	-0.122681	69.9301
2.488	-0.121155	69.9301
2.489	-0.119324	69.9301
2.49	-0.117798	69.9301
2.491	-0.115967	69.9301
2.492	-0.114441	69.9301
2.493	-0.11261	69.9301
2.494	-0.110779	69.9301
2.495	-0.109253	69.9301
2.496	-0.107422	69.9301
2.497	-0.105591	69.9301
2.498	-0.104065	69.9301
2.499	-0.102234	69.9301
2.5	-0.100708	69.9301
2.501	-0.098877	69.9301
2.502	-0.0973511	69.9301
2.503	-0.09552	69.9301
2.504	-0.093689	69.9301
2.505	-0.0915527	69.9301
2.506	-0.0897217	69.9301
2.507	-0.0878906	69.9301
2.508	-0.0860596	69.9301
2.509	-0.0842285	69.9301
2.51	-0.0827026	69.9301
2.511	-0.0808716	69.9301
2.512	-0.0796509	69.9301
2.513	-0.078125	69.9301
2.514	-0.0772095	69.9301
2.515	-0.0759888	69.9301
2.516	-0.0750732	69.9301
2.517	-0.0741577	69.9301
2.518	-0.0732422	69.9301
2.519	-0.0723267	69.9301
2.52	-0.0714111	69.9301
2.521	-0.0704956	69.9301
2.522	-0.0692749	69.9301
2.523	-0.0683594	69.9301
2.524	-0.0671387	69.9301
2.525	-0.065918	69.9301
2.526	-0.0643921	69.9301
2.527	-0.0631714	69.9301
2.528	-0.0613403	69.9301
2.529	-0.0598145	69.9301
2.53	-0.0582886	69.9301
2.531	-0.0564575	69.9301
2.532	-0.0546265	69.9301
2.533	-0.0527954	69.9301
2.534	-0.0509644	69.9301
2.535	-0.0494385	69.9301
2.536	-0.0476074	69.9301
2.537	-0.0457764	69.9301
2.538	-0.0442505	69.9301
2.539	-0.0427246	69.9301
2.54	-0.0408936	69.9301
2.541	-0.0393677	69.9301
2.542	-0.0378418	69.9301
2.543	-0.0360107	69.9301
2.544	-0.0341797	69.9301
2.545	-0.0323486	69.9301
2.546	-0.0302124	69.9301
2.547	-0.0280762	69.9301
2.548	-0.0259399	69.9301
2.549	-0.0234985	69.9301
2.55	-0.0210571	69.9301
2.551	-0.0186157	69.9301
2.552	-0.0161743	69.9301
2.553	-0.0137329	69.9301
2.554	-0.0112915	69.9301
2.555	-0.0088501	69.9301
2.556	-0.00640869	69.9301
2.557	-0.00396729	69.9301
2.558	-0.00152588	69.9301
2.559	0.000915527	69.9301
2.56	0.00335693	69.9301
2.561	0.00579834	69.9301
2.562	0.00823975	69.9301
2.563	0.0106812	69.9301
2.564	0.0131226	69.9301
2.565	0.0158691	69.9301
2.566	0.0186157	69.9301
2.567	0.0213623	69.9301
2.568	0.0244141	69.9301
2.569	0.0274658	69.9301
2.57	0.0308228	69.9301
2.571	0.0341797	69.9301
2.572	0.0375366	69.9301
2.573	0.0411987	69.9301
2.574	0.0445557	69.9301
2.575	0.0482178	69.9301
2.576	0.0515747	69.9301
2.577	0.0552368	69.9301
2.578	0.0585938	69.9301
2.579	0.0616455	69.9301
2.58	0.0650024	69.9301
2.581	0.0683594	69.9301
2.582	0.0714111	69.9301
2.583	0.0744629	69.9301
2.584	0.0775146	69.9301
2.585	0.0802612	69.9301
2.586	0.0830078	69.9301
2.587	0.0860596	69.9301
2.588	0.0888062	69.9301
2.589	0.0915527	69.9301
2.59	0.0946045	69.9301
2.591	0.0976563	69.9301
2.592	0.100708	69.9301
2.593	0.10376	69.9301
2.594	0.107117	69.9301
2.595	0.110474	69.9301
2.596	0.114136	69.9301
2.597	0.117798	69.9301
2.598	0.121155	69.9301
2.599	0.124817	69.9301
2.6	0.128479	69.9301
2.601	0.131836	69.9301
2.602	0.134888	69.9301
2.603	0.137939	69.9301
2.604	0.140686	69.9301
2.605	0.143127	69.9301
2.606	0.145569	69.9301
2.607	0.1474	69.9301
2.608	0.149231	69.9301
2.609	0.150757	69.9301
2.61	0.151978	69.9301
2.611	0.152893	69.9301
2.612	0.153809	69.9301
2.613	0.154419	69.9301
2.614	0.155029	69.9301
2.615	0.155334	69.9301
2.616	0.155945	69.9301
2.617	0.15625	69.9301
2.618	0.156555	69.9301
2.619	0.157166	69.9301
2.62	0.157471	69.9301
2.621	0.158081	69.9301
2.622	0.158691	69.9301
2.623	0.159302	69.9301
2.624	0.159912	69.9301
2.625	0.160522	69.9301
2.626	0.161133	69.9301
2.627	0.162048	69.9301
2.628	0.162659	69.9301
2.629	0.162964	69.9301
2.63	0.163574	69.9301
2.631	0.163879	69.9301
2.632	0.164185	69.9301
2.633	0.164185	69.9301
2.634	0.16449	69.9301
2.635	0.16449	69.9301
2.636	0.16449	69.9301
2.637	0.16449	69.9301
2.638	0.164185	69.9301
2.639	0.163879	69.9301
2.64	0.163574	69.9301
2.641	0.162964	69.9301
2.642	0.162048	69.9301
2.643	0.160828	69.9301
2.644	0.159302	69.9301
2.645	0.157776	69.9301
2.646	0.15564	69.9301
2.647	0.153198	69.9301
2.648	0.150146	69.9301
2.649	0.14679	69.9301
2.65	0.142822	69.9301
2.651	0.13855	69.9301
2.652	0.133972	69.9301
2.653	0.128784	69.9301
2.654	0.123291	69.9301
2.655	0.117493	69.9301
2.656	0.111084	69.9301
2.657	0.104675	69.9301
2.658	0.0979614	69.9301
2.659	0.0909424	69.9301
2.66	0.0839233	69.9301
2.661	0.0765991	69.9301
2.662	0.0692749	69.9301
2.663	0.0622559	69.9301
2.664	0.0549316	69.9301
2.665	0.0476074	69.9301
2.666	0.0405884	69.9301
2.667	0.0332642	69.9301
2.668	0.0262451	69.9301
2.669	0.0189209	69.9301
2.67	0.0119019	69.9301
2.671	0.00488281	69.9301
2.672	-0.00213623	69.9301
2.673	-0.0088501	69.9301
2.674	-0.0158691	69.9301
2.675	-0.0222778	69.9301
2.676	-0.0289917	69.9301
2.677	-0.0350952	69.9301
2.678	-0.0411987	69.9301
2.679	-0.0473022	69.9301
2.68	-0.0531006	69.9301
2.681	-0.0588989	69.9301
2.682	-0.0640869	69.9301
2.683	-0.0695801	69.9301
2.684	-0.0747681	69.9301
2.685	-0.0796509	69.9301
2.686	-0.0845337	69.9301
2.687	-0.0894165	69.9301
2.688	-0.0939941	69.9301
2.689	-0.0985718	69.9301
2.69	-0.102844	69.9301
2.691	-0.107117	69.9301
2.692	-0.111389	69.9301
2.693	-0.115356	69.9301
2.694	-0.119629	69.9301
2.695	-0.123596	69.9301
2.696	-0.127258	69.9301
2.697	-0.131226	69.9301
2.698	-0.134888	69.9301
2.699	-0.13855	69.9301
2.7	-0.142212	69.9301
2.701	-0.145569	69.9301
2.702	-0.148926	69.9301
2.703	-0.151978	69.9301
2.704	-0.154724	69.9301
2.705	-0.157776	69.9301
2.706	-0.160217	69.9301
2.707	-0.162659	69.9301
2.708	-0.1651	69.9301
2.709	-0.167236	69.9301
2.71	-0.169373	69.9301
2.711	-0.171204	69.9301
2.712	-0.173035	69.9301
2.713	-0.174561	69.9301
2.714	-0.175781	69.9301
2.715	-0.177307	69.9301
2.716	-0.178223	69.9301
2.717	-0.179443	69.9301
2.718	-0.180359	69.9301
2.719	-0.180969	69.9301
2.72	-0.18158	69.9301
2.721	-0.18219	69.9301
2.722	-0.182495	69.9301
2.723	-0.1828	69.9301
2.724	-0.183105	69.9301
2.725	-0.183105	69.9301
2.726	-0.183411	69.9301
2.727	-0.183411	69.9301
2.728	-0.183716	69.9301
2.729	-0.183716	69.9301
2.73	-0.183716	69.9301
2.731	-0.184021	69.9301
2.732	-0.184326	69.9301
2.733	-0.184326	69.9301
2.734	-0.184631	69.9301
2.735	-0.185242	69.9301
2.736	-0.185547	69.9301
2.737	-0.185852	69.9301
2.738	-0.186157	69.9301
2.739	-0.186462	69.9301
2.74	-0.186768	69.9301
2.741	-0.187073	69.9301
2.742	-0.187378	69.9301
2.743	-0.187378	69.9301
2.744	-0.187378	69.9301
2.745	-0.187378	69.9301
2.746	-0.187073	69.9301
2.747	-0.186768	69.9301
2.748	-0.186462	69.9301
2.749	-0.185852	69.9301
2.75	-0.185242	69.9301
2.751	-0.184326	69.9301
2.752	-0.183411	69.9301
2.753	-0.182495	69.9301
2.754	-0.18158	69.9301
2.755	-0.180359	69.9301
2.756	-0.179443	69.9301
2.757	-0.178223	69.9301
2.758	-0.177307	69.9301
2.759	-0.176086	69.9301
2.76	-0.175171	69.9301
2.761	-0.174255	69.9301
2.762	-0.17334	69.9301
2.763	-0.172729	69.9301
2.764	-0.171814	69.9301
2.765	-0.171204	69.9301
2.766	-0.170898	69.9301
2.767	-0.170288	69.9301
2.768	-0.169983	69.9301
2.769	-0.169983	69.9301
2.77	-0.169678	69.9301
2.771	-0.169678	69.9301
2.772	-0.169678	69.9301
2.773	-0.169678	69.9301
2.774	-0.169983	69.9301
2.775	-0.169983	69.9301
2.776	-0.170288	69.9301
2.777	-0.170593	69.9301
2.778	-0.170898	69.9301
2.779	-0.171204	69.9301
2.78	-0.171509	69.9301
2.781	-0.171814	69.9301
2.782	-0.172119	69.9301
2.783	-0.172424	69.9301
2.784	-0.172424	69.9301
2.785	-0.172729	69.9301
2.786	-0.172729	69.9301
2.787	-0.172729	69.9301
2.788	-0.172729	69.9301
2.789	-0.172424	69.9301
2.79	-0.172424	69.9301
2.791	-0.172119	69.9301
2.792	-0.171814	69.9301
2.793	-0.171509	69.9301
2.794	-0.171204	69.9301
2.795	-0.170593	69.9301
2.796	-0.170288	69.9301
2.797	-0.169678	69.9301
2.798	-0.169067	69.9301
2.799	-0.168762	69.9301
2.8	-0.168457	69.9301
2.801	-0.168152	69.9301
2.802	-0.167847	69.9301
2.803	-0.167542	69.9301
2.804	-0.167542	69.9301
2.805	-0.167542	69.9301
2.806	-0.167236	69.9301
2.807	-0.167236	69.9301
2.808	-0.167236	69.9301
2.809	-0.167236	69.9301
2.81	-0.167236	69.9301
2.811	-0.167236	69.9301
2.812	-0.167236	69.9301
2.813	-0.167236	69.9301
2.814	-0.167236	69.9301
2.815	-0.166931	69.9301
2.816	-0.166626	69.9301
2.817	-0.166321	69.9301
2.818	-0.166016	69.9301
2.819	-0.16571	69.9301
2.82	-0.1651	69.9301
2.821	-0.16449	69.9301
2.822	-0.164185	69.9301
2.823	-0.163574	69.9301
2.824	-0.162964	69.9301
2.825	-0.162354	69.9301
2.826	-0.162048	69.9301
2.827	-0.161438	69.9301
2.828	-0.161133	69.9301
2.829	-0.160828	69.9301
2.83	-0.160522	69.9301
2.831	-0.160522	69.9301
2.832	-0.160217	69.9301
2.833	-0.160217	69.9301
2.834	-0.159912	69.9301
2.835	-0.159912	69.9301
2.836	-0.159607	69.9301
2.837	-0.159607	69.9301
2.838	-0.159607	69.9301
2.839	-0.159912	69.9301
2.84	-0.159912	69.9301
2.841	-0.160217	69.9301
2.842	-0.160217	69.9301
2.843	-0.160522	69.9301
2.844	-0.161133	69.9301
2.845	-0.161438	69.9301
2.846	-0.162048	69.9301
2.847	-0.162354	69.9301
2.848	-0.162964	69.9301
2.849	-0.163574	69.9301
2.85	-0.164185	69.9301
2.851	-0.16449	69.9301
2.852	-0.1651	69.9301
2.853	-0.16571	69.9301
2.854	-0.166321	69.9301
2.855	-0.166931	69.9301
2.856	-0.167542	69.9301
2.857	-0.168152	69.9301
2.858	-0.168762	69.9301
2.859	-0.169067	69.9301
2.86	-0.169678	69.9301
2.861	-0.169983	69.9301
2.862	-0.170288	69.9301
2.863	-0.170898	69.9301
2.864	-0.171204	69.9301
2.865	-0.171509	69.9301
2.866	-0.171814	69.9301
2.867	-0.172119	69.9301
2.868	-0.172729	69.9301
2.869	-0.173035	69.9301
2.87	-0.17334	69.9301
2.871	-0.173645	69.9301
2.872	-0.17395	69.9301
2.873	-0.17395	69.9301
2.874	-0.174255	69.9301
2.875	-0.174255	69.9301
2.876	-0.174561	69.9301
2.877	-0.174561	69.9301
2.878	-0.174255	69.9301
2.879	-0.174255	69.9301
2.88	-0.17395	69.9301
2.881	-0.173645	69.9301
2.882	-0.17334	69.9301
2.883	-0.173035	69.9301
2.884	-0.172424	69.9301
2.885	-0.172119	69.9301
2.886	-0.171509	69.9301
2.887	-0.170898	69.9301
2.888	-0.170593	69.9301
2.889	-0.169983	69.9301
2.89	-0.169678	69.9301
2.891	-0.169067	69.9301
2.892	-0.168762	69.9301
2.893	-0.168457	69.9301
2.894	-0.168152	69.9301
2.895	-0.167847	69.9301
2.896	-0.167542	69.9301
2.897	-0.167236	69.9301
2.898	-0.167236	69.9301
2.899	-0.166931	69.9301
2.9	-0.166931	69.9301
2.901	-0.166931	69.9301
2.902	-0.166931	69.9301
2.903	-0.167236	69.9301
2.904	-0.167236	69.9301
2.905	-0.167236	69.9301
2.906	-0.167542	69.9301
2.907	-0.167542	69.9301
2.908	-0.167542	69.9301
2.909	-0.167236	69.9301
2.91	-0.167236	69.9301
2.911	-0.166931	69.9301
2.912	-0.166931	69.9301
2.913	-0.166321	69.9301
2.914	-0.166016	69.9301
2.915	-0.165405	69.9301
2.916	-0.164795	69.9301
2.917	-0.164185	69.9301
2.918	-0.163574	69.9301
2.919	-0.162659	69.9301
2.92	-0.161438	69.9301
2.921	-0.160522	69.9301
2.922	-0.159302	69.9301
2.923	-0.158081	69.9301
2.924	-0.157166	69.9301
2.925	-0.155945	69.9301
2.926	-0.155029	69.9301
2.927	-0.154114	69.9301
2.928	-0.153198	69.9301
2.929	-0.152283	69.9301
2.93	-0.151672	69.9301
2.931	-0.151062	69.9301
2.932	-0.150757	69.9301
2.933	-0.150452	69.9301
2.934	-0.150146	69.9301
2.935	-0.149841	69.9301
2.936	-0.149841	69.9301
2.937	-0.149841	69.9301
2.938	-0.150146	69.9301
2.939	-0.150146	69.9301
2.94	-0.150452	69.9301
2.941	-0.150757	69.9301
2.942	-0.151367	69.9301
2.943	-0.151672	69.9301
2.944	-0.151978	69.9301
2.945	-0.152283	69.9301
2.946	-0.152588	69.9301
2.947	-0.152893	69.9301
2.948	-0.153198	69.9301
2.949	-0.153198	69.9301
2.95	-0.153503	69.9301
2.951	-0.153503	69.9301
2.952	-0.153503	69.9301
2.953	-0.153503	69.9301
2.954	-0.153809	69.9301
2.955	-0.153809	69.9301
2.956	-0.153809	69.9301
2.957	-0.154114	69.9301
2.958	-0.154114	69.9301
2.959	-0.154419	69.9301
2.96	-0.154724	69.9301
2.961	-0.154724	69.9301
2.962	-0.155029	69.9301
2.963	-0.155334	69.9301
2.964	-0.15564	69.9301
2.965	-0.155945	69.9301
2.966	-0.15625	69.9301
2.967	-0.156555	69.9301
2.968	-0.15686	69.9301
2.969	-0.157166	69.9301
2.97	-0.157471	69.9301
2.971	-0.157776	69.9301
2.972	-0.158081	69.9301
2.973	-0.158081	69.9301
2.974	-0.158386	69.9301
2.975	-0.158386	69.9301
2.976	-0.158386	69.9301
2.977	-0.158691	69.9301
2.978	-0.158691	69.9301
2.979	-0.158691	69.9301
2.98	-0.158691	69.9301
2.981	-0.158691	69.9301
2.982	-0.158386	69.9301
2.983	-0.158386	69.9301
2.984	-0.158081	69.9301
2.985	-0.157471	69.9301
2.986	-0.157166	69.9301
2.987	-0.156555	69.9301
2.988	-0.15625	69.9301
2.989	-0.15564	69.9301
2.99	-0.154724	69.9301
2.991	-0.154114	69.9301
2.992	-0.153503	69.9301
2.993	-0.152588	69.9301
2.994	-0.151978	69.9301
2.995	-0.151062	69.9301
2.996	-0.150452	69.9301
2.997	-0.149841	69.9301
2.998	-0.149536	69.9301
2.999	-0.149231	69.9301
3	-0.148926	69.9301
3.001	-0.148926	69.9301
3.002	-0.148926	69.9301
3.003	-0.149231	69.9301
3.004	-0.149536	69.9301
3.005	-0.149841	69.9301
3.006	-0.150146	69.9301
3.007	-0.150452	69.9301
3.008	-0.151062	69.9301
3.009	-0.151367	69.9301
3.01	-0.151672	69.9301
3.011	-0.151978	69.9301
3.012	-0.152283	69.9301
3.013	-0.152283	69.9301
3.014	-0.152283	69.9301
3.015	-0.152283	69.9301
3.016	-0.152283	69.9301
3.017	-0.152283	69.9301
3.018	-0.151978	69.9301
3.019	-0.151672	69.9301
3.02	-0.151367	69.9301
3.021	-0.150757	69.9301
3.022	-0.150452	69.9301
3.023	-0.149841	69.9301
3.024	-0.149231	69.9301
3.025	-0.148926	69.9301
3.026	-0.148315	69.9301
3.027	-0.147705	69.9301
3.028	-0.1474	69.9301
3.029	-0.14679	69.9301
3.03	-0.146484	69.9301
3.031	-0.145874	69.9301
3.032	-0.145569	69.9301
3.033	-0.144958	69.9301
3.034	-0.144653	69.9301
3.035	-0.144043	69.9301
3.036	-0.143738	69.9301
3.037	-0.143127	69.9301
3.038	-0.142822	69.9301
3.039	-0.142822	69.9301
3.04	-0.142517	69.9301
3.041	-0.142517	69.9301
3.042	-0.142517	69.9301
3.043	-0.142517	69.9301
3.044	-0.142517	69.9301
3.045	-0.142212	69.9301
3.046	-0.142212	69.9301
3.047	-0.141907	69.9301
3.048	-0.141907	69.9301
3.049	-0.141602	69.9301
3.05	-0.140991	69.9301
3.051	-0.140686	69.9301
3.052	-0.140076	69.9301
3.053	-0.139771	69.9301
3.054	-0.13916	69.9301
3.055	-0.138245	69.9301
3.056	-0.137634	69.9301
3.057	-0.136719	69.9301
3.058	-0.136108	69.9301
3.059	-0.135498	69.9301
3.06	-0.134583	69.9301
3.061	-0.133972	69.9301
3.062	-0.133362	69.9301
3.063	-0.133057	69.9301
3.064	-0.132751	69.9301
3.065	-0.132446	69.9301
3.066	-0.132141	69.9301
3.067	-0.132141	69.9301
3.068	-0.132141	69.9301
3.069	-0.131836	69.9301
3.07	-0.131836	69.9301
3.071	-0.131836	69.9301
3.072	-0.131836	69.9301
3.073	-0.131836	69.9301
3.074	-0.131836	69.9301
3.075	-0.131531	69.9301
3.076	-0.131531	69.9301
3.077	-0.131226	69.9301
3.078	-0.13092	69.9301
3.079	-0.13092	69.9301
3.08	-0.130615	69.9301
3.081	-0.13031	69.9301
3.082	-0.13031	69.9301
3.083	-0.130005	69.9301
3.084	-0.130005	69.9301
3.085	-0.130005	69.9301
3.086	-0.13031	69.9301
3.087	-0.130615	69.9301
3.088	-0.13092	69.9301
3.089	-0.131531	69.9301
3.09	-0.132141	69.9301
3.091	-0.132751	69.9301
3.092	-0.133362	69.9301
3.093	-0.134277	69.9301
3.094	-0.135498	69.9301
3.095	-0.136414	69.9301
3.096	-0.137329	69.9301
3.097	-0.13855	69.9301
3.098	-0.139465	69.9301
3.099	-0.140381	69.9301
3.1	-0.141602	69.9301
3.101	-0.142212	69.9301
3.102	-0.143127	69.9301
3.103	-0.143738	69.9301
3.104	-0.144043	69.9301
3.105	-0.144348	69.9301
3.106	-0.144348	69.9301
3.107	-0.144348	69.9301
3.108	-0.144043	69.9301
3.109	-0.143433	69.9301
3.11	-0.142822	69.9301
3.111	-0.141602	69.9301
3.112	-0.140076	69.9301
3.113	-0.138245	69.9301
3.114	-0.136108	69.9301
3.115	-0.133667	69.9301
3.116	-0.13092	69.9301
3.117	-0.127869	69.9301
3.118	-0.124512	69.9301
3.119	-0.12085	69.9301
3.12	-0.117188	69.9301
3.121	-0.11322	69.9301
3.122	-0.108948	69.9301
3.123	-0.104675	69.9301
3.124	-0.100403	69.9301
3.125	-0.0964355	69.9301
3.126	-0.0921631	69.9301
3.127	-0.0881958	69.9301
3.128	-0.0842285	69.9301
3.129	-0.0808716	69.9301
3.13	-0.0775146	69.9301
3.131	-0.0741577	69.9301
3.132	-0.0714111	69.9301
3.133	-0.0686646	69.9301
3.134	-0.065918	69.9301
3.135	-0.0634766	69.9301
3.136	-0.0613403	69.9301
3.137	-0.0592041	69.9301
3.138	-0.057373	69.9301
3.139	-0.055542	69.9301
3.14	-0.0537109	69.9301
3.141	-0.0518799	69.9301
3.142	-0.0500488	69.9301
3.143	-0.0479126	69.9301
3.144	-0.0457764	69.9301
3.145	-0.043335	69.9301
3.146	-0.0408936	69.9301
3.147	-0.0384521	69.9301
3.148	-0.0357056	69.9301
3.149	-0.0332642	69.9301
3.15	-0.0308228	69.9301
3.151	-0.0283813	69.9301
3.152	-0.0262451	69.9301
3.153	-0.0238037	69.9301
3.154	-0.0216675	69.9301
3.155	-0.0195313	69.9301
3.156	-0.0177002	69.9301
3.157	-0.015564	69.9301
3.158	-0.0137329	69.9301
3.159	-0.0115967	69.9301
3.16	-0.00946045	69.9301
3.161	-0.00732422	69.9301
3.162	-0.00518799	69.9301
3.163	-0.00335693	69.9301
3.164	-0.00152588	69.9301
3.165	0.000305176	69.9301
3.166	0.00183105	69.9301
3.167	0.00335693	69.9301
3.168	0.00457764	69.9301
3.169	0.00579834	69.9301
3.17	0.00701904	69.9301
3.171	0.00793457	69.9301
3.172	0.00854492	69.9301
3.173	0.00915527	69.9301
3.174	0.00976563	69.9301
3.175	0.0100708	69.9301
3.176	0.0100708	69.9301
3.177	0.0100708	69.9301
3.178	0.0100708	69.9301
3.179	0.00976563	69.9301
3.18	0.0088501	69.9301
3.181	0.00793457	69.9301
3.182	0.00671387	69.9301
3.183	0.00518799	69.9301
3.184	0.00335693	69.9301
3.185	0.0012207	69.9301
3.186	-0.000915527	69.9301
3.187	-0.00305176	69.9301
3.188	-0.00579834	69.9301
3.189	-0.00915527	69.9301
3.19	-0.0125122	69.9301
3.191	-0.0167847	69.9301
3.192	-0.0216675	69.9301
3.193	-0.0271606	69.9301
3.194	-0.032959	69.9301
3.195	-0.0393677	69.9301
3.196	-0.0463867	69.9301
3.197	-0.0534058	69.9301
3.198	-0.0604248	69.9301
3.199	-0.067749	69.9301
3.2	-0.0750732	69.9301
3.201	-0.0820923	69.9301
3.202	-0.0888062	69.9301
3.203	-0.09552	69.9301
3.204	-0.101929	69.9301
3.205	-0.108032	69.9301
3.206	-0.113525	69.9301
3.207	-0.118713	69.9301
3.208	-0.123291	69.9301
3.209	-0.127258	69.9301
3.21	-0.130615	69.9301
3.211	-0.133667	69.9301
3.212	-0.136108	69.9301
3.213	-0.138245	69.9301
3.214	-0.140076	69.9301
3.215	-0.141602	69.9301
3.216	-0.142822	69.9301
3.217	-0.143738	69.9301
3.218	-0.144653	69.9301
3.219	-0.145569	69.9301
3.22	-0.146484	69.9301
3.221	-0.1474	69.9301
3.222	-0.148315	69.9301
3.223	-0.149231	69.9301
3.224	-0.150452	69.9301
3.225	-0.151672	69.9301
3.226	-0.152893	69.9301
3.227	-0.153809	69.9301
3.228	-0.155029	69.9301
3.229	-0.155945	69.9301
3.23	-0.15686	69.9301
3.231	-0.157776	69.9301
3.232	-0.158386	69.9301
3.233	-0.158997	69.9301
3.234	-0.159302	69.9301
3.235	-0.159912	69.9301
3.236	-0.160217	69.9301
3.237	-0.160522	69.9301
3.238	-0.160828	69.9301
3.239	-0.161133	69.9301
3.24	-0.161438	69.9301
3.241	-0.161438	69.9301
3.242	-0.161438	69.9301
3.243	-0.161743	69.9301
3.244	-0.161743	69.9301
3.245	-0.162048	69.9301
3.246	-0.162354	69.9301
3.247	-0.162354	69.9301
3.248	-0.162659	69.9301
3.249	-0.162964	69.9301
3.25	-0.162964	69.9301
3.251	-0.163269	69.9301
3.252	-0.163269	69.9301
3.253	-0.163574	69.9301
3.254	-0.163879	69.9301
3.255	-0.163879	69.9301
3.256	-0.164185	69.9301
3.257	-0.164185	69.9301
3.258	-0.164185	69.9301
3.259	-0.164185	69.9301
3.26	-0.164185	69.9301
3.261	-0.16449	69.9301
3.262	-0.164795	69.9301
3.263	-0.1651	69.9301
3.264	-0.166321	69.9301
3.265	-0.167847	69.9301
3.266	-0.169983	69.9301
3.267	-0.173035	69.9301
3.268	-0.176697	69.9301
3.269	-0.180969	69.9301
3.27	-0.185852	69.9301
3.271	-0.19104	69.9301
3.272	-0.196533	69.9301
3.273	-0.201416	69.9301
3.274	-0.205994	69.9301
3.275	-0.209656	69.9301
3.276	-0.212097	69.9301
3.277	-0.212402	69.9301
3.278	-0.210876	69.9301
3.279	-0.206604	69.9301
3.28	-0.198975	69.9301
3.281	-0.187683	69.9301
3.282	-0.172424	69.9301
3.283	-0.152283	69.9301
3.284	-0.127258	69.9301
3.285	-0.0970459	69.9301
3.286	-0.0619507	69.9301
3.287	-0.0210571	69.9301
3.288	0.0250244	69.9301
3.289	0.0765991	69.9301
3.29	0.133057	69.9301
3.291	0.195007	69.9301
3.292	0.261841	69.9301
3.293	0.332642	69.9301
3.294	0.406799	69.9301
3.295	0.482178	69.9301
3.296	0.557251	69.9301
3.297	0.629883	69.9301
3.298	0.698547	69.9301
3.299	0.761414	69.9301
3.3	0.816956	69.9301
3.301	0.863953	69.9301
3.302	0.901184	69.9301
3.303	0.92804	69.9301
3.304	0.944214	69.9301
3.305	0.948792	69.9301
3.306	0.942078	69.9301
3.307	0.922852	69.9301
3.308	0.892029	69.9301
3.309	0.85022	69.9301
3.31	0.797729	69.9301
3.311	0.736084	69.9301
3.312	0.666809	69.9301
3.313	0.591736	69.9301
3.314	0.512695	69.9301
3.315	0.431519	67.2646
3.316	0.350037	67.2646
3.317	0.26947	67.2646
3.318	0.19104	67.2646
3.319	0.115356	67.2646
3.32	0.0436401	67.2646
3.321	-0.0241089	67.2646
3.322	-0.0869751	67.2646
3.323	-0.144653	67.2646
3.324	-0.196838	67.2646
3.325	-0.244141	67.2646
3.326	-0.28595	67.2646
3.327	-0.323181	67.2646
3.328	-0.35553	67.2646
3.329	-0.383301	67.2646
3.33	-0.406494	67.2646
3.331	-0.425415	67.2646
3.332	-0.440063	67.2646
3.333	-0.450745	67.2646
3.334	-0.457764	67.2646
3.335	-0.460815	67.2646
3.336	-0.460815	67.2646
3.337	-0.457764	67.2646
3.338	-0.451965	67.2646
3.339	-0.443726	67.2646
3.34	-0.433044	67.2646
3.341	-0.420532	67.2646
3.342	-0.405884	67.2646
3.343	-0.389404	67.2646
3.344	-0.371704	67.2646
3.345	-0.352783	67.2646
3.346	-0.332947	67.2646
3.347	-0.3125	67.2646
3.348	-0.292053	67.2646
3.349	-0.271606	67.2646
3.35	-0.25177	67.2646
3.351	-0.232239	67.2646
3.352	-0.213928	67.2646
3.353	-0.196228	67.2646
3.354	-0.180054	67.2646
3.355	-0.164795	67.2646
3.356	-0.151367	67.2646
3.357	-0.139465	67.2646
3.358	-0.129395	67.2646
3.359	-0.121155	67.2646
3.36	-0.114441	67.2646
3.361	-0.109863	67.2646
3.362	-0.106812	67.2646
3.363	-0.105286	67.2646
3.364	-0.10498	67.2646
3.365	-0.105591	67.2646
3.366	-0.106812	67.2646
3.367	-0.108643	67.2646
3.368	-0.110779	67.2646
3.369	-0.112915	67.2646
3.37	-0.115051	67.2646
3.371	-0.116577	67.2646
3.372	-0.117798	67.2646
3.373	-0.118713	67.2646
3.374	-0.119019	67.2646
3.375	-0.118713	67.2646
3.376	-0.117798	67.2646
3.377	-0.116577	67.2646
3.378	-0.114746	67.2646
3.379	-0.112915	67.2646
3.38	-0.110779	67.2646
3.381	-0.108643	67.2646
3.382	-0.106201	67.2646
3.383	-0.104065	67.2646
3.384	-0.101929	67.2646
3.385	-0.100098	67.2646
3.386	-0.0982666	67.2646
3.387	-0.0964355	67.2646
3.388	-0.0949097	67.2646
3.389	-0.0933838	67.2646
3.39	-0.0921631	67.2646
3.391	-0.0906372	67.2646
3.392	-0.0894165	67.2646
3.393	-0.0881958	67.2646
3.394	-0.0866699	67.2646
3.395	-0.0854492	67.2646
3.396	-0.0842285	67.2646
3.397	-0.0827026	67.2646
3.398	-0.0814819	67.2646
3.399	-0.0796509	67.2646
3.4	-0.078125	67.2646
3.401	-0.0765991	67.2646
3.402	-0.0747681	67.2646
3.403	-0.072937	67.2646
3.404	-0.0714111	67.2646
3.405	-0.0695801	67.2646
3.406	-0.0680542	67.2646
3.407	-0.0665283	67.2646
3.408	-0.0650024	67.2646
3.409	-0.0634766	67.2646
3.41	-0.0622559	67.2646
3.411	-0.0610352	67.2646
3.412	-0.0601196	67.2646
3.413	-0.0588989	67.2646
3.414	-0.0579834	67.2646
3.415	-0.0567627	67.2646
3.416	-0.0558472	67.2646
3.417	-0.0546265	67.2646
3.418	-0.0534058	67.2646
3.419	-0.0521851	67.2646
3.42	-0.0506592	67.2646
3.421	-0.0491333	67.2646
3.422	-0.0476074	67.2646
3.423	-0.0454712	67.2646
3.424	-0.0436401	67.2646
3.425	-0.0415039	67.2646
3.426	-0.0393677	67.2646
3.427	-0.0369263	67.2646
3.428	-0.03479	67.2646
3.429	-0.0323486	67.2646
3.43	-0.0302124	67.2646
3.431	-0.0280762	67.2646
3.432	-0.0259399	67.2646
3.433	-0.0238037	67.2646
3.434	-0.0216675	67.2646
3.435	-0.0198364	67.2646
3.436	-0.0177002	67.2646
3.437	-0.0158691	67.2646
3.438	-0.0140381	67.2646
3.439	-0.0119019	67.2646
3.44	-0.00976563	67.2646
3.441	-0.00762939	67.2646
3.442	-0.00549316	67.2646
3.443	-0.00305176	67.2646
3.444	-0.000610352	67.2646
3.445	0.00213623	67.2646
3.446	0.00488281	67.2646
3.447	0.00793457	67.2646
3.448	0.0109863	67.2646
3.449	0.0143433	67.2646
3.45	0.0177002	67.2646
3.451	0.0210571	67.2646
3.452	0.0244141	67.2646
3.453	0.0280762	67.2646
3.454	0.0314331	67.2646
3.455	0.0350952	67.2646
3.456	0.0384521	67.2646
3.457	0.0418091	67.2646
3.458	0.045166	67.2646
3.459	0.0485229	67.2646
3.46	0.0515747	67.2646
3.461	0.0549316	67.2646
3.462	0.0582886	67.2646
3.463	0.0613403	67.2646
3.464	0.0646973	67.2646
3.465	0.067749	67.2646
3.466	0.071106	67.2646
3.467	0.0744629	67.2646
3.468	0.0778198	67.2646
3.469	0.0814819	67.2646
3.47	0.0848389	67.2646
3.471	0.0881958	67.2646
3.472	0.0918579	67.2646
3.473	0.0952148	67.2646
3.474	0.0985718	67.2646
3.475	0.101929	67.2646
3.476	0.105286	67.2646
3.477	0.108643	67.2646
3.478	0.111694	67.2646
3.479	0.115051	67.2646
3.48	0.118103	67.2646
3.481	0.121155	67.2646
3.482	0.124207	67.2646
3.483	0.126953	67.2646
3.484	0.130005	67.2646
3.485	0.132751	67.2646
3.486	0.135498	67.2646
3.487	0.138245	67.2646
3.488	0.140991	67.2646
3.489	0.143738	67.2646
3.49	0.146484	67.2646
3.491	0.148926	67.2646
3.492	0.151672	67.2646
3.493	0.154419	67.2646
3.494	0.15686	67.2646
3.495	0.159302	67.2646
3.496	0.162048	67.2646
3.497	0.16449	67.2646
3.498	0.166931	67.2646
3.499	0.169373	67.2646
3.5	0.171814	67.2646
3.501	0.174255	67.2646
3.502	0.176392	67.2646
3.503	0.178833	67.2646
3.504	0.180969	67.2646
3.505	0.183105	67.2646
3.506	0.185547	67.2646
3.507	0.187378	67.2646
3.508	0.189514	67.2646
3.509	0.191345	67.2646
3.51	0.193176	67.2646
3.511	0.194702	67.2646
3.512	0.196228	67.2646
3.513	0.197449	67.2646
3.514	0.198364	67.2646
3.515	0.19928	67.2646
3.516	0.19989	67.2646
3.517	0.2005	67.2646
3.518	0.201111	67.2646
3.519	0.201416	67.2646
3.52	0.201721	67.2646
3.521	0.201721	67.2646
3.522	0.201721	67.2646
3.523	0.201416	67.2646
3.524	0.201111	67.2646
3.525	0.200806	67.2646
3.526	0.2005	67.2646
3.527	0.200195	67.2646
3.528	0.19989	67.2646
3.529	0.19928	67.2646
3.53	0.198975	67.2646
3.531	0.198364	67.2646
3.532	0.197449	67.2646
3.533	0.196533	67.2646
3.534	0.195313	67.2646
3.535	0.193787	67.2646
3.536	0.191956	67.2646
3.537	0.189819	67.2646
3.538	0.187073	67.2646
3.539	0.184326	67.2646
3.54	0.180969	67.2646
3.541	0.177307	67.2646
3.542	0.173035	67.2646
3.543	0.168762	67.2646
3.544	0.163879	67.2646
3.545	0.158386	67.2646
3.546	0.152893	67.2646
3.547	0.147095	67.2646
3.548	0.140686	67.2646
3.549	0.134277	67.2646
3.55	0.127563	67.2646
3.551	0.120544	67.2646
3.552	0.11322	67.2646
3.553	0.105591	67.2646
3.554	0.0976563	67.2646
3.555	0.0894165	67.2646
3.556	0.0811768	67.2646
3.557	0.072937	67.2646
3.558	0.0643921	67.2646
3.559	0.0558472	67.2646
3.56	0.0469971	67.2646
3.561	0.0384521	67.2646
3.562	0.0296021	67.2646
3.563	0.020752	67.2646
3.564	0.012207	67.2646
3.565	0.00366211	67.2646
3.566	-0.00488281	67.2646
3.567	-0.0131226	67.2646
3.568	-0.0213623	67.2646
3.569	-0.0292969	67.2646
3.57	-0.0366211	67.2646
3.571	-0.0439453	67.2646
3.572	-0.0506592	67.2646
3.573	-0.0570679	67.2646
3.574	-0.0631714	67.2646
3.575	-0.0692749	67.2646
3.576	-0.0747681	67.2646
3.577	-0.0799561	67.2646
3.578	-0.0848389	67.2646
3.579	-0.0897217	67.2646
3.58	-0.0939941	67.2646
3.581	-0.0982666	67.2646
3.582	-0.102234	67.2646
3.583	-0.106201	67.2646
3.584	-0.109863	67.2646
3.585	-0.11322	67.2646
3.586	-0.116577	67.2646
3.587	-0.119934	67.2646
3.588	-0.123291	67.2646
3.589	-0.126343	67.2646
3.59	-0.129395	67.2646
3.591	-0.132446	67.2646
3.592	-0.135498	67.2646
3.593	-0.138245	67.2646
3.594	-0.141296	67.2646
3.595	-0.144348	67.2646
3.596	-0.147095	67.2646
3.597	-0.149841	67.2646
3.598	-0.152588	67.2646
3.599	-0.15564	67.2646
3.6	-0.158081	67.2646
3.601	-0.160828	67.2646
3.602	-0.163269	67.2646
3.603	-0.16571	67.2646
3.604	-0.168152	67.2646
3.605	-0.170288	67.2646
3.606	-0.172424	67.2646
3.607	-0.174255	67.2646
3.608	-0.175781	67.2646
3.609	-0.177002	67.2646
3.61	-0.178223	67.2646
3.611	-0.179138	67.2646
3.612	-0.180054	67.2646
3.613	-0.180664	67.2646
3.614	-0.181274	67.2646
3.615	-0.181274	67.2646
3.616	-0.18158	67.2646
3.617	-0.18158	67.2646
3.618	-0.18158	67.2646
3.619	-0.181274	67.2646
3.62	-0.180969	67.2646
3.621	-0.180969	67.2646
3.622	-0.180664	67.2646
3.623	-0.180664	67.2646
3.624	-0.180359	67.2646
3.625	-0.180359	67.2646
3.626	-0.180664	67.2646
3.627	-0.180664	67.2646
3.628	-0.180969	67.2646
3.629	-0.180969	67.2646
3.63	-0.181274	67.2646
3.631	-0.18158	67.2646
3.632	-0.18219	67.2646
3.633	-0.182495	67.2646
3.634	-0.183105	67.2646
3.635	-0.183716	67.2646
3.636	-0.184021	67.2646
3.637	-0.184631	67.2646
3.638	-0.184937	67.2646
3.639	-0.185547	67.2646
3.64	-0.185852	67.2646
3.641	-0.185852	67.2646
3.642	-0.186157	67.2646
3.643	-0.186157	67.2646
3.644	-0.186157	67.2646
3.645	-0.186157	67.2646
3.646	-0.185852	67.2646
3.647	-0.185547	67.2646
3.648	-0.185242	67.2646
3.649	-0.184937	67.2646
3.65	-0.184937	67.2646
3.651	-0.184631	67.2646
3.652	-0.184631	67.2646
3.653	-0.184631	67.2646
3.654	-0.184631	67.2646
3.655	-0.184631	67.2646
3.656	-0.184326	67.2646
3.657	-0.184326	67.2646
3.658	-0.184021	67.2646
3.659	-0.183716	67.2646
3.66	-0.183105	67.2646
3.661	-0.1828	67.2646
3.662	-0.18219	67.2646
3.663	-0.18158	67.2646
3.664	-0.180664	67.2646
3.665	-0.179749	67.2646
3.666	-0.178833	67.2646
3.667	-0.177612	67.2646
3.668	-0.176392	67.2646
3.669	-0.174866	67.2646
3.67	-0.17334	67.2646
3.671	-0.172119	67.2646
3.672	-0.170593	67.2646
3.673	-0.169373	67.2646
3.674	-0.167847	67.2646
3.675	-0.166931	67.2646
3.676	-0.166016	67.2646
3.677	-0.1651	67.2646
3.678	-0.16449	67.2646
3.679	-0.164185	67.2646
3.68	-0.163879	67.2646
3.681	-0.163574	67.2646
3.682	-0.163574	67.2646
3.683	-0.163574	67.2646
3.684	-0.163574	67.2646
3.685	-0.163879	67.2646
3.686	-0.164185	67.2646
3.687	-0.164795	67.2646
3.688	-0.1651	67.2646
3.689	-0.165405	67.2646
3.69	-0.16571	67.2646
3.691	-0.166016	67.2646
3.692	-0.166321	67.2646
3.693	-0.166626	67.2646
3.694	-0.166931	67.2646
3.695	-0.166931	67.2646
3.696	-0.166931	67.2646
3.697	-0.166931	67.2646
3.698	-0.166931	67.2646
3.699	-0.166931	67.2646
3.7	-0.166931	67.2646
3.701	-0.166626	67.2646
3.702	-0.166626	67.2646
3.703	-0.166321	67.2646
3.704	-0.166321	67.2646
3.705	-0.166321	67.2646
3.706	-0.166321	67.2646
3.707	-0.166321	67.2646
3.708	-0.166321	67.2646
3.709	-0.166321	67.2646
3.71	-0.166321	67.2646
3.711	-0.166321	67.2646
3.712	-0.166321	67.2646
3.713	-0.166321	67.2646
3.714	-0.166016	67.2646
3.715	-0.16571	67.2646
3.716	-0.165405	67.2646
3.717	-0.1651	67.2646
3.718	-0.16449	67.2646
3.719	-0.163879	67.2646
3.72	-0.162964	67.2646
3.721	-0.162048	67.2646
3.722	-0.161133	67.2646
3.723	-0.160522	67.2646
3.724	-0.159607	67.2646
3.725	-0.158997	67.2646
3.726	-0.158691	67.2646
3.727	-0.158081	67.2646
3.728	-0.157776	67.2646
3.729	-0.157471	67.2646
3.73	-0.157166	67.2646
3.731	-0.157166	67.2646
3.732	-0.157166	67.2646
3.733	-0.157471	67.2646
3.734	-0.157776	67.2646
3.735	-0.158386	67.2646
3.736	-0.158997	67.2646
3.737	-0.159607	67.2646
3.738	-0.160522	67.2646
3.739	-0.161133	67.2646
3.74	-0.162048	67.2646
3.741	-0.162964	67.2646
3.742	-0.163574	67.2646
3.743	-0.16449	67.2646
3.744	-0.1651	67.2646
3.745	-0.16571	67.2646
3.746	-0.166321	67.2646
3.747	-0.166931	67.2646
3.748	-0.167236	67.2646
3.749	-0.167847	67.2646
3.75	-0.168457	67.2646
3.751	-0.168762	67.2646
3.752	-0.169373	67.2646
3.753	-0.169678	67.2646
3.754	-0.170288	67.2646
3.755	-0.170593	67.2646
3.756	-0.170593	67.2646
3.757	-0.170898	67.2646
3.758	-0.171204	67.2646
3.759	-0.171204	67.2646
3.76	-0.171509	67.2646
3.761	-0.171509	67.2646
3.762	-0.171509	67.2646
3.763	-0.171509	67.2646
3.764	-0.171509	67.2646
3.765	-0.171509	67.2646
3.766	-0.171204	67.2646
3.767	-0.171204	67.2646
3.768	-0.170898	67.2646
3.769	-0.170593	67.2646
3.77	-0.170288	67.2646
3.771	-0.169983	67.2646
3.772	-0.169678	67.2646
3.773	-0.169678	67.2646
3.774	-0.169373	67.2646
3.775	-0.169067	67.2646
3.776	-0.169067	67.2646
3.777	-0.169067	67.2646
3.778	-0.169067	67.2646
3.779	-0.169067	67.2646
3.78	-0.169373	67.2646
3.781	-0.169678	67.2646
3.782	-0.169678	67.2646
3.783	-0.169983	67.2646
3.784	-0.170288	67.2646
3.785	-0.170593	67.2646
3.786	-0.171204	67.2646
3.787	-0.171509	67.2646
3.788	-0.171814	67.2646
3.789	-0.172119	67.2646
3.79	-0.172424	67.2646
3.791	-0.172729	67.2646
3.792	-0.172729	67.2646
3.793	-0.172424	67.2646
3.794	-0.172424	67.2646
3.795	-0.172119	67.2646
3.796	-0.172119	67.2646
3.797	-0.171814	67.2646
3.798	-0.171814	67.2646
3.799	-0.171509	67.2646
3.8	-0.171509	67.2646
3.801	-0.171204	67.2646
3.802	-0.171204	67.2646
3.803	-0.170898	67.2646
3.804	-0.171204	67.2646
3.805	-0.171204	67.2646
3.806	-0.171509	67.2646
3.807	-0.171814	67.2646
3.808	-0.172119	67.2646
3.809	-0.172424	67.2646
3.81	-0.173035	67.2646
3.811	-0.173645	67.2646
3.812	-0.174255	67.2646
3.813	-0.174866	67.2646
3.814	-0.175476	67.2646
3.815	-0.176086	67.2646
3.816	-0.176697	67.2646
3.817	-0.177307	67.2646
3.818	-0.177612	67.2646
3.819	-0.177917	67.2646
3.82	-0.178223	67.2646
3.821	-0.178223	67.2646
3.822	-0.178528	67.2646
3.823	-0.178528	67.2646
3.824	-0.178833	67.2646
3.825	-0.178833	67.2646
3.826	-0.178833	67.2646
3.827	-0.178833	67.2646
3.828	-0.178833	67.2646
3.829	-0.178833	67.2646
3.83	-0.178833	67.2646
3.831	-0.178833	67.2646
3.832	-0.178833	67.2646
3.833	-0.178833	67.2646
3.834	-0.178833	67.2646
3.835	-0.178833	67.2646
3.836	-0.179138	67.2646
3.837	-0.179138	67.2646
3.838	-0.179138	67.2646
3.839	-0.179443	67.2646
3.84	-0.179443	67.2646
3.841	-0.179443	67.2646
3.842	-0.179138	67.2646
3.843	-0.179138	67.2646
3.844	-0.179138	67.2646
3.845	-0.178833	67.2646
3.846	-0.178528	67.2646
3.847	-0.178223	67.2646
3.848	-0.177917	67.2646
3.849	-0.177612	67.2646
3.85	-0.177612	67.2646
3.851	-0.177307	67.2646
3.852	-0.177307	67.2646
3.853	-0.177002	67.2646
3.854	-0.177002	67.2646
3.855	-0.177307	67.2646
3.856	-0.177612	67.2646
3.857	-0.178223	67.2646
3.858	-0.178528	67.2646
3.859	-0.179443	67.2646
3.86	-0.180359	67.2646
3.861	-0.181274	67.2646
3.862	-0.18219	67.2646
3.863	-0.183105	67.2646
3.864	-0.184326	67.2646
3.865	-0.185242	67.2646
3.866	-0.185852	67.2646
3.867	-0.186768	67.2646
3.868	-0.187378	67.2646
3.869	-0.187683	67.2646
3.87	-0.187683	67.2646
3.871	-0.187683	67.2646
3.872	-0.187378	67.2646
3.873	-0.186768	67.2646
3.874	-0.186157	67.2646
3.875	-0.184937	67.2646
3.876	-0.184021	67.2646
3.877	-0.1828	67.2646
3.878	-0.18158	67.2646
3.879	-0.180664	67.2646
3.88	-0.179443	67.2646
3.881	-0.178528	67.2646
3.882	-0.177612	67.2646
3.883	-0.176697	67.2646
3.884	-0.176086	67.2646
3.885	-0.175476	67.2646
3.886	-0.175171	67.2646
3.887	-0.175171	67.2646
3.888	-0.175171	67.2646
3.889	-0.175476	67.2646
3.89	-0.176086	67.2646
3.891	-0.176697	67.2646
3.892	-0.177307	67.2646
3.893	-0.177612	67.2646
3.894	-0.178223	67.2646
3.895	-0.178833	67.2646
3.896	-0.179138	67.2646
3.897	-0.179443	67.2646
3.898	-0.179749	67.2646
3.899	-0.180054	67.2646
3.9	-0.180359	67.2646
3.901	-0.180359	67.2646
3.902	-0.180054	67.2646
3.903	-0.180054	67.2646
3.904	-0.179749	67.2646
3.905	-0.179443	67.2646
3.906	-0.179138	67.2646
3.907	-0.178528	67.2646
3.908	-0.178223	67.2646
3.909	-0.177917	67.2646
3.91	-0.177612	67.2646
3.911	-0.177307	67.2646
3.912	-0.177002	67.2646
3.913	-0.177002	67.2646
3.914	-0.176697	67.2646
3.915	-0.177002	67.2646
3.916	-0.177002	67.2646
3.917	-0.177002	67.2646
3.918	-0.177307	67.2646
3.919	-0.177612	67.2646
3.92	-0.177612	67.2646
3.921	-0.177917	67.2646
3.922	-0.177917	67.2646
3.923	-0.177917	67.2646
3.924	-0.177917	67.2646
3.925	-0.177612	67.2646
3.926	-0.177612	67.2646
3.927	-0.177307	67.2646
3.928	-0.176697	67.2646
3.929	-0.176086	67.2646
3.93	-0.175171	67.2646
3.931	-0.174255	67.2646
3.932	-0.17334	67.2646
3.933	-0.172424	67.2646
3.934	-0.171509	67.2646
3.935	-0.170593	67.2646
3.936	-0.169983	67.2646
3.937	-0.169067	67.2646
3.938	-0.168457	67.2646
3.939	-0.167847	67.2646
3.94	-0.167542	67.2646
3.941	-0.167542	67.2646
3.942	-0.167542	67.2646
3.943	-0.167847	67.2646
3.944	-0.168457	67.2646
3.945	-0.169067	67.2646
3.946	-0.169678	67.2646
3.947	-0.170288	67.2646
3.948	-0.171204	67.2646
3.949	-0.172119	67.2646
3.95	-0.172729	67.2646
3.951	-0.173645	67.2646
3.952	-0.174561	67.2646
3.953	-0.175171	67.2646
3.954	-0.175476	67.2646
3.955	-0.175781	67.2646
3.956	-0.175781	67.2646
3.957	-0.176086	67.2646
3.958	-0.175781	67.2646
3.959	-0.175781	67.2646
3.96	-0.175476	67.2646
3.961	-0.174866	67.2646
3.962	-0.174255	67.2646
3.963	-0.17334	67.2646
3.964	-0.172424	67.2646
3.965	-0.171204	67.2646
3.966	-0.170288	67.2646
3.967	-0.169373	67.2646
3.968	-0.168152	67.2646
3.969	-0.167542	67.2646
3.97	-0.166626	67.2646
3.971	-0.166016	67.2646
3.972	-0.165405	67.2646
3.973	-0.1651	67.2646
3.974	-0.164795	67.2646
3.975	-0.164795	67.2646
3.976	-0.164795	67.2646
3.977	-0.1651	67.2646
3.978	-0.16571	67.2646
3.979	-0.166321	67.2646
3.98	-0.166931	67.2646
3.981	-0.167847	67.2646
3.982	-0.168762	67.2646
3.983	-0.169678	67.2646
3.984	-0.170593	67.2646
3.985	-0.171509	67.2646
3.986	-0.172119	67.2646
3.987	-0.172729	67.2646
3.988	-0.17334	67.2646
3.989	-0.173645	67.2646
3.99	-0.173645	67.2646
3.991	-0.17395	67.2646
3.992	-0.173645	67.2646
3.993	-0.173645	67.2646
3.994	-0.17334	67.2646
3.995	-0.17334	67.2646
3.996	-0.173035	67.2646
3.997	-0.172729	67.2646
3.998	-0.172729	67.2646
3.999	-0.172729	67.2646
4	-0.172729	67.2646
4.001	-0.172424	67.2646
4.002	-0.172424	67.2646
4.003	-0.172119	67.2646
4.004	-0.172119	67.2646
4.005	-0.171814	67.2646
4.006	-0.171509	67.2646
4.007	-0.171204	67.2646
4.008	-0.170898	67.2646
4.009	-0.170593	67.2646
4.01	-0.170288	67.2646
4.011	-0.169983	67.2646
4.012	-0.169678	67.2646
4.013	-0.169067	67.2646
4.014	-0.168457	67.2646
4.015	-0.167847	67.2646
4.016	-0.166931	67.2646
4.017	-0.166016	67.2646
4.018	-0.164795	67.2646
4.019	-0.163574	67.2646
4.02	-0.162048	67.2646
4.021	-0.160522	67.2646
4.022	-0.158691	67.2646
4.023	-0.156555	67.2646
4.024	-0.154114	67.2646
4.025	-0.151367	67.2646
4.026	-0.14801	67.2646
4.027	-0.144348	67.2646
4.028	-0.140686	67.2646
4.029	-0.136719	67.2646
4.03	-0.132446	67.2646
4.031	-0.128479	67.2646
4.032	-0.124512	67.2646
4.033	-0.12085	67.2646
4.034	-0.117188	67.2646
4.035	-0.113831	67.2646
4.036	-0.110474	67.2646
4.037	-0.107727	67.2646
4.038	-0.10498	67.2646
4.039	-0.102844	67.2646
4.04	-0.100708	67.2646
4.041	-0.0991821	67.2646
4.042	-0.0976563	67.2646
4.043	-0.0961304	67.2646
4.044	-0.0952148	67.2646
4.045	-0.0939941	67.2646
4.046	-0.0933838	67.2646
4.047	-0.0924683	67.2646
4.048	-0.0915527	67.2646
4.049	-0.0906372	67.2646
4.05	-0.0894165	67.2646
4.051	-0.0878906	67.2646
4.052	-0.0863647	67.2646
4.053	-0.0845337	67.2646
4.054	-0.0827026	67.2646
4.055	-0.0805664	67.2646
4.056	-0.0787354	67.2646
4.057	-0.0762939	67.2646
4.058	-0.0741577	67.2646
4.059	-0.0717163	67.2646
4.06	-0.0689697	67.2646
4.061	-0.0662231	67.2646
4.062	-0.0631714	67.2646
4.063	-0.0598145	67.2646
4.064	-0.0564575	67.2646
4.065	-0.0531006	67.2646
4.066	-0.0497437	67.2646
4.067	-0.0463867	67.2646
4.068	-0.0430298	67.2646
4.069	-0.0396729	67.2646
4.07	-0.0369263	67.2646
4.071	-0.0344849	67.2646
4.072	-0.0326538	67.2646
4.073	-0.0311279	67.2646
4.074	-0.0302124	67.2646
4.075	-0.0299072	67.2646
4.076	-0.0299072	67.2646
4.077	-0.0302124	67.2646
4.078	-0.0308228	67.2646
4.079	-0.0317383	67.2646
4.08	-0.0326538	67.2646
4.081	-0.0338745	67.2646
4.082	-0.0350952	67.2646
4.083	-0.0366211	67.2646
4.084	-0.0378418	67.2646
4.085	-0.0390625	67.2646
4.086	-0.039978	67.2646
4.087	-0.0411987	67.2646
4.088	-0.0424194	67.2646
4.089	-0.0436401	67.2646
4.09	-0.045166	67.2646
4.091	-0.0463867	67.2646
4.092	-0.0482178	67.2646
4.093	-0.050354	67.2646
4.094	-0.0527954	67.2646
4.095	-0.0558472	67.2646
4.096	-0.0595093	67.2646
4.097	-0.0637817	67.2646
4.098	-0.0686646	67.2646
4.099	-0.0741577	67.2646
4.1	-0.0802612	67.2646
4.101	-0.0869751	67.2646
4.102	-0.0939941	67.2646
4.103	-0.101013	67.2646
4.104	-0.108337	67.2646
4.105	-0.115662	67.2646
4.106	-0.122986	67.2646
4.107	-0.130005	67.2646
4.108	-0.136719	67.2646
4.109	-0.142822	67.2646
4.11	-0.148621	67.2646
4.111	-0.153809	67.2646
4.112	-0.158691	67.2646
4.113	-0.162964	67.2646
4.114	-0.166626	67.2646
4.115	-0.169983	67.2646
4.116	-0.172729	67.2646
4.117	-0.175476	67.2646
4.118	-0.177917	67.2646
4.119	-0.180054	67.2646
4.12	-0.18219	67.2646
4.121	-0.184021	67.2646
4.122	-0.185547	67.2646
4.123	-0.187073	67.2646
4.124	-0.188599	67.2646
4.125	-0.189819	67.2646
4.126	-0.19104	67.2646
4.127	-0.192566	67.2646
4.128	-0.193787	67.2646
4.129	-0.195007	67.2646
4.13	-0.195923	67.2646
4.131	-0.196838	67.2646
4.132	-0.197449	67.2646
4.133	-0.198059	67.2646
4.134	-0.198364	67.2646
4.135	-0.198059	67.2646
4.136	-0.198059	67.2646
4.137	-0.197449	67.2646
4.138	-0.196838	67.2646
4.139	-0.195923	67.2646
4.14	-0.195007	67.2646
4.141	-0.194092	67.2646
4.142	-0.192871	67.2646
4.143	-0.191956	67.2646
4.144	-0.191345	67.2646
4.145	-0.19043	67.2646
4.146	-0.189819	67.2646
4.147	-0.189209	67.2646
4.148	-0.188599	67.2646
4.149	-0.188293	67.2646
4.15	-0.187988	67.2646
4.151	-0.187988	67.2646
4.152	-0.188293	67.2646
4.153	-0.188599	67.2646
4.154	-0.188904	67.2646
4.155	-0.189514	67.2646
4.156	-0.190125	67.2646
4.157	-0.190735	67.2646
4.158	-0.191345	67.2646
4.159	-0.191956	67.2646
4.16	-0.192261	67.2646
4.161	-0.192871	67.2646
4.162	-0.193176	67.2646
4.163	-0.193787	67.2646
4.164	-0.194397	67.2646
4.165	-0.194702	67.2646
4.166	-0.195313	67.2646
4.167	-0.195923	67.2646
4.168	-0.197144	67.2646
4.169	-0.198669	67.2646
4.17	-0.2005	67.2646
4.171	-0.203247	67.2646
4.172	-0.206909	67.2646
4.173	-0.211487	67.2646
4.174	-0.216675	67.2646
4.175	-0.222168	67.2646
4.176	-0.228577	67.2646
4.177	-0.234985	67.2646
4.178	-0.241394	67.2646
4.179	-0.247192	67.2646
4.18	-0.25238	67.2646
4.181	-0.256042	67.2646
4.182	-0.257874	67.2646
4.183	-0.257568	67.2646
4.184	-0.254211	67.2646
4.185	-0.248108	67.2646
4.186	-0.238037	67.2646
4.187	-0.223694	67.2646
4.188	-0.205078	67.2646
4.189	-0.181274	67.2646
4.19	-0.152588	67.2646
4.191	-0.118713	67.2646
4.192	-0.0793457	67.2646
4.193	-0.0350952	67.2646
4.194	0.0140381	67.2646
4.195	0.0686646	67.2646
4.196	0.128174	67.2646
4.197	0.192261	67.2646
4.198	0.260315	67.2646
4.199	0.331116	67.2646
4.2	0.403748	67.2646
4.201	0.475464	67.2646
4.202	0.545044	67.2646
4.203	0.610046	67.2646
4.204	0.66925	67.2646
4.205	0.72113	67.2646
4.206	0.76416	67.2646
4.207	0.797729	67.2646
4.208	0.820923	67.2646
4.209	0.833435	67.2646
4.21	0.835266	67.2646
4.211	0.826111	67.2646
4.212	0.805054	67.2646
4.213	0.77301	67.2646
4.214	0.730286	67.2646
4.215	0.677795	67.2646
4.216	0.617371	67.2646
4.217	0.550842	67.2646
4.218	0.479431	67.2646
4.219	0.405884	66.2983
4.22	0.331421	66.2983
4.221	0.257874	66.2983
4.222	0.186462	66.2983
4.223	0.118408	66.2983
4.224	0.0543213	66.2983
4.225	-0.00579834	66.2983
4.226	-0.0616455	66.2983
4.227	-0.113525	66.2983
4.228	-0.160522	66.2983
4.229	-0.203552	66.2983
4.23	-0.24231	66.2983
4.231	-0.2771	66.2983
4.232	-0.308228	66.2983
4.233	-0.336609	66.2983
4.234	-0.361938	66.2983
4.235	-0.384521	66.2983
4.236	-0.404968	66.2983
4.237	-0.422668	66.2983
4.238	-0.438232	66.2983
4.239	-0.451355	66.2983
4.24	-0.462036	66.2983
4.241	-0.470276	66.2983
4.242	-0.475769	66.2983
4.243	-0.478821	66.2983
4.244	-0.479126	66.2983
4.245	-0.477295	66.2983
4.246	-0.472412	66.2983
4.247	-0.465698	66.2983
4.248	-0.456238	66.2983
4.249	-0.444946	66.2983
4.25	-0.431519	66.2983
4.251	-0.416565	66.2983
4.252	-0.400085	66.2983
4.253	-0.38208	66.2983
4.254	-0.363464	66.2983
4.255	-0.344238	66.2983
4.256	-0.324707	66.2983
4.257	-0.305481	66.2983
4.258	-0.286255	66.2983
4.259	-0.267944	66.2983
4.26	-0.250244	66.2983
4.261	-0.233459	66.2983
4.262	-0.21759	66.2983
4.263	-0.203247	66.2983
4.264	-0.19043	66.2983
4.265	-0.179138	66.2983
4.266	-0.169678	66.2983
4.267	-0.162048	66.2983
4.268	-0.155945	66.2983
4.269	-0.151672	66.2983
4.27	-0.148926	66.2983
4.271	-0.1474	66.2983
4.272	-0.147095	66.2983
4.273	-0.1474	66.2983
4.274	-0.148621	66.2983
4.275	-0.149841	66.2983
4.276	-0.151062	66.2983
4.277	-0.152588	66.2983
4.278	-0.153809	66.2983
4.279	-0.154724	66.2983
4.28	-0.155334	66.2983
4.281	-0.15564	66.2983
4.282	-0.15564	66.2983
4.283	-0.155029	66.2983
4.284	-0.154114	66.2983
4.285	-0.153198	66.2983
4.286	-0.151978	66.2983
4.287	-0.150757	66.2983
4.288	-0.149536	66.2983
4.289	-0.14801	66.2983
4.29	-0.14679	66.2983
4.291	-0.145264	66.2983
4.292	-0.144043	66.2983
4.293	-0.142822	66.2983
4.294	-0.141602	66.2983
4.295	-0.140686	66.2983
4.296	-0.139771	66.2983
4.297	-0.13916	66.2983
4.298	-0.13855	66.2983
4.299	-0.138245	66.2983
4.3	-0.137634	66.2983
4.301	-0.137024	66.2983
4.302	-0.136719	66.2983
4.303	-0.135803	66.2983
4.304	-0.135193	66.2983
4.305	-0.134277	66.2983
4.306	-0.133057	66.2983
4.307	-0.131836	66.2983
4.308	-0.130615	66.2983
4.309	-0.129089	66.2983
4.31	-0.127563	66.2983
4.311	-0.125427	66.2983
4.312	-0.123596	66.2983
4.313	-0.12146	66.2983
4.314	-0.119019	66.2983
4.315	-0.116882	66.2983
4.316	-0.114441	66.2983
4.317	-0.112305	66.2983
4.318	-0.110168	66.2983
4.319	-0.108337	66.2983
4.32	-0.106506	66.2983
4.321	-0.10498	66.2983
4.322	-0.103455	66.2983
4.323	-0.102234	66.2983
4.324	-0.101013	66.2983
4.325	-0.0997925	66.2983
4.326	-0.098877	66.2983
4.327	-0.0979614	66.2983
4.328	-0.0967407	66.2983
4.329	-0.09552	66.2983
4.33	-0.0942993	66.2983
4.331	-0.0930786	66.2983
4.332	-0.0915527	66.2983
4.333	-0.0897217	66.2983
4.334	-0.0875854	66.2983
4.335	-0.0854492	66.2983
4.336	-0.083313	66.2983
4.337	-0.0808716	66.2983
4.338	-0.078125	66.2983
4.339	-0.0756836	66.2983
4.34	-0.072937	66.2983
4.341	-0.0701904	66.2983
4.342	-0.0674438	66.2983
4.343	-0.0650024	66.2983
4.344	-0.062561	66.2983
4.345	-0.0601196	66.2983
4.346	-0.0576782	66.2983
4.347	-0.055542	66.2983
4.348	-0.0534058	66.2983
4.349	-0.0509644	66.2983
4.35	-0.0488281	66.2983
4.351	-0.0466919	66.2983
4.352	-0.0445557	66.2983
4.353	-0.0424194	66.2983
4.354	-0.039978	66.2983
4.355	-0.0378418	66.2983
4.356	-0.0350952	66.2983
4.357	-0.0326538	66.2983
4.358	-0.0299072	66.2983
4.359	-0.0271606	66.2983
4.36	-0.0244141	66.2983
4.361	-0.0213623	66.2983
4.362	-0.0183105	66.2983
4.363	-0.0152588	66.2983
4.364	-0.0125122	66.2983
4.365	-0.00946045	66.2983
4.366	-0.00640869	66.2983
4.367	-0.00335693	66.2983
4.368	-0.000305176	66.2983
4.369	0.00244141	66.2983
4.37	0.00518799	66.2983
4.371	0.00793457	66.2983
4.372	0.0106812	66.2983
4.373	0.0131226	66.2983
4.374	0.0158691	66.2983
4.375	0.0186157	66.2983
4.376	0.0213623	66.2983
4.377	0.0241089	66.2983
4.378	0.0265503	66.2983
4.379	0.0292969	66.2983
4.38	0.0320435	66.2983
4.381	0.03479	66.2983
4.382	0.0375366	66.2983
4.383	0.0402832	66.2983
4.384	0.0430298	66.2983
4.385	0.0457764	66.2983
4.386	0.0485229	66.2983
4.387	0.0509644	66.2983
4.388	0.0537109	66.2983
4.389	0.0561523	66.2983
4.39	0.0588989	66.2983
4.391	0.0613403	66.2983
4.392	0.0637817	66.2983
4.393	0.065918	66.2983
4.394	0.0683594	66.2983
4.395	0.0704956	66.2983
4.396	0.0726318	66.2983
4.397	0.0747681	66.2983
4.398	0.0769043	66.2983
4.399	0.0790405	66.2983
4.4	0.0811768	66.2983
4.401	0.083313	66.2983
4.402	0.085144	66.2983
4.403	0.0872803	66.2983
4.404	0.0891113	66.2983
4.405	0.0909424	66.2983
4.406	0.0924683	66.2983
4.407	0.0939941	66.2983
4.408	0.09552	66.2983
4.409	0.0967407	66.2983
4.41	0.0979614	66.2983
4.411	0.098877	66.2983
4.412	0.0994873	66.2983
4.413	0.100403	66.2983
4.414	0.100708	66.2983
4.415	0.101013	66.2983
4.416	0.101013	66.2983
4.417	0.101318	66.2983
4.418	0.101318	66.2983
4.419	0.101013	66.2983
4.42	0.101013	66.2983
4.421	0.101013	66.2983
4.422	0.101013	66.2983
4.423	0.101013	66.2983
4.424	0.101013	66.2983
4.425	0.101013	66.2983
4.426	0.101318	66.2983
4.427	0.101624	66.2983
4.428	0.101929	66.2983
4.429	0.102234	66.2983
4.43	0.102844	66.2983
4.431	0.103455	66.2983
4.432	0.10376	66.2983
4.433	0.10437	66.2983
4.434	0.104675	66.2983
4.435	0.10498	66.2983
4.436	0.10498	66.2983
4.437	0.10498	66.2983
4.438	0.10498	66.2983
4.439	0.10437	66.2983
4.44	0.10376	66.2983
4.441	0.103149	66.2983
4.442	0.101929	66.2983
4.443	0.100403	66.2983
4.444	0.0985718	66.2983
4.445	0.0961304	66.2983
4.446	0.0930786	66.2983
4.447	0.0897217	66.2983
4.448	0.0857544	66.2983
4.449	0.0814819	66.2983
4.45	0.0765991	66.2983
4.451	0.0717163	66.2983
4.452	0.0662231	66.2983
4.453	0.06073	66.2983
4.454	0.0549316	66.2983
4.455	0.0488281	66.2983
4.456	0.0424194	66.2983
4.457	0.0360107	66.2983
4.458	0.0292969	66.2983
4.459	0.0228882	66.2983
4.46	0.0161743	66.2983
4.461	0.00976563	66.2983
4.462	0.00335693	66.2983
4.463	-0.00305176	66.2983
4.464	-0.00915527	66.2983
4.465	-0.0152588	66.2983
4.466	-0.0216675	66.2983
4.467	-0.027771	66.2983
4.468	-0.0335693	66.2983
4.469	-0.0396729	66.2983
4.47	-0.0454712	66.2983
4.471	-0.0512695	66.2983
4.472	-0.057373	66.2983
4.473	-0.0631714	66.2983
4.474	-0.0689697	66.2983
4.475	-0.0747681	66.2983
4.476	-0.0805664	66.2983
4.477	-0.0863647	66.2983
4.478	-0.0918579	66.2983
4.479	-0.0970459	66.2983
4.48	-0.102234	66.2983
4.481	-0.107422	66.2983
4.482	-0.112305	66.2983
4.483	-0.116882	66.2983
4.484	-0.12146	66.2983
4.485	-0.126038	66.2983
4.486	-0.130615	66.2983
4.487	-0.134583	66.2983
4.488	-0.13855	66.2983
4.489	-0.142212	66.2983
4.49	-0.145569	66.2983
4.491	-0.149231	66.2983
4.492	-0.152588	66.2983
4.493	-0.15564	66.2983
4.494	-0.158997	66.2983
4.495	-0.162048	66.2983
4.496	-0.1651	66.2983
4.497	-0.168152	66.2983
4.498	-0.171204	66.2983
4.499	-0.17395	66.2983
4.5	-0.176392	66.2983
4.501	-0.178833	66.2983
4.502	-0.181274	66.2983
4.503	-0.183411	66.2983
4.504	-0.185547	66.2983
4.505	-0.187378	66.2983
4.506	-0.189209	66.2983
4.507	-0.19104	66.2983
4.508	-0.192871	66.2983
4.509	-0.194702	66.2983
4.51	-0.196228	66.2983
4.511	-0.197449	66.2983
4.512	-0.198669	66.2983
4.513	-0.19989	66.2983
4.514	-0.200806	66.2983
4.515	-0.201721	66.2983
4.516	-0.202637	66.2983
4.517	-0.203247	66.2983
4.518	-0.204163	66.2983
4.519	-0.204773	66.2983
4.52	-0.205383	66.2983
4.521	-0.205994	66.2983
4.522	-0.206299	66.2983
4.523	-0.206604	66.2983
4.524	-0.206909	66.2983
4.525	-0.207214	66.2983
4.526	-0.207214	66.2983
4.527	-0.20752	66.2983
4.528	-0.207825	66.2983
4.529	-0.20813	66.2983
4.53	-0.208435	66.2983
4.531	-0.20874	66.2983
4.532	-0.209045	66.2983
4.533	-0.209351	66.2983
4.534	-0.209961	66.2983
4.535	-0.210266	66.2983
4.536	-0.210266	66.2983
4.537	-0.210571	66.2983
4.538	-0.210571	66.2983
4.539	-0.210571	66.2983
4.54	-0.210266	66.2983
4.541	-0.209961	66.2983
4.542	-0.209656	66.2983
4.543	-0.209351	66.2983
4.544	-0.20874	66.2983
4.545	-0.20813	66.2983
4.546	-0.20752	66.2983
4.547	-0.206909	66.2983
4.548	-0.206299	66.2983
4.549	-0.205688	66.2983
4.55	-0.205078	66.2983
4.551	-0.204468	66.2983
4.552	-0.203857	66.2983
4.553	-0.203552	66.2983
4.554	-0.203247	66.2983
4.555	-0.202942	66.2983
4.556	-0.203247	66.2983
4.557	-0.203247	66.2983
4.558	-0.203552	66.2983
4.559	-0.203857	66.2983
4.56	-0.203857	66.2983
4.561	-0.203552	66.2983
4.562	-0.203552	66.2983
4.563	-0.202942	66.2983
4.564	-0.202637	66.2983
4.565	-0.201721	66.2983
4.566	-0.201111	66.2983
4.567	-0.200195	66.2983
4.568	-0.19928	66.2983
4.569	-0.198059	66.2983
4.57	-0.197144	66.2983
4.571	-0.196228	66.2983
4.572	-0.195618	66.2983
4.573	-0.195007	66.2983
4.574	-0.194702	66.2983
4.575	-0.194702	66.2983
4.576	-0.195007	66.2983
4.577	-0.195313	66.2983
4.578	-0.195923	66.2983
4.579	-0.196533	66.2983
4.58	-0.197449	66.2983
4.581	-0.198364	66.2983
4.582	-0.19928	66.2983
4.583	-0.200195	66.2983
4.584	-0.201111	66.2983
4.585	-0.202026	66.2983
4.586	-0.202637	66.2983
4.587	-0.202637	66.2983
4.588	-0.202637	66.2983
4.589	-0.202332	66.2983
4.59	-0.201721	66.2983
4.591	-0.200806	66.2983
4.592	-0.199585	66.2983
4.593	-0.198364	66.2983
4.594	-0.196838	66.2983
4.595	-0.195007	66.2983
4.596	-0.193481	66.2983
4.597	-0.19165	66.2983
4.598	-0.190125	66.2983
4.599	-0.188599	66.2983
4.6	-0.187073	66.2983
4.601	-0.185852	66.2983
4.602	-0.184631	66.2983
4.603	-0.183716	66.2983
4.604	-0.1828	66.2983
4.605	-0.18219	66.2983
4.606	-0.18158	66.2983
4.607	-0.180969	66.2983
4.608	-0.180359	66.2983
4.609	-0.180054	66.2983
4.61	-0.179749	66.2983
4.611	-0.179749	66.2983
4.612	-0.179749	66.2983
4.613	-0.179749	66.2983
4.614	-0.180054	66.2983
4.615	-0.180664	66.2983
4.616	-0.180969	66.2983
4.617	-0.18158	66.2983
4.618	-0.18219	66.2983
4.619	-0.1828	66.2983
4.62	-0.183411	66.2983
4.621	-0.184021	66.2983
4.622	-0.184631	66.2983
4.623	-0.185242	66.2983
4.624	-0.185547	66.2983
4.625	-0.185852	66.2983
4.626	-0.185852	66.2983
4.627	-0.186157	66.2983
4.628	-0.185852	66.2983
4.629	-0.185852	66.2983
4.63	-0.185242	66.2983
4.631	-0.184937	66.2983
4.632	-0.184631	66.2983
4.633	-0.184021	66.2983
4.634	-0.183716	66.2983
4.635	-0.183105	66.2983
4.636	-0.1828	66.2983
4.637	-0.182495	66.2983
4.638	-0.182495	66.2983
4.639	-0.182495	66.2983
4.64	-0.1828	66.2983
4.641	-0.183105	66.2983
4.642	-0.183411	66.2983
4.643	-0.184021	66.2983
4.644	-0.184631	66.2983
4.645	-0.184937	66.2983
4.646	-0.185547	66.2983
4.647	-0.186157	66.2983
4.648	-0.186462	66.2983
4.649	-0.186768	66.2983
4.65	-0.186768	66.2983
4.651	-0.186768	66.2983
4.652	-0.186768	66.2983
4.653	-0.186768	66.2983
4.654	-0.186462	66.2983
4.655	-0.185852	66.2983
4.656	-0.185547	66.2983
4.657	-0.184937	66.2983
4.658	-0.184326	66.2983
4.659	-0.183716	66.2983
4.66	-0.183105	66.2983
4.661	-0.1828	66.2983
4.662	-0.182495	66.2983
4.663	-0.18219	66.2983
4.664	-0.181885	66.2983
4.665	-0.181885	66.2983
4.666	-0.18158	66.2983
4.667	-0.18158	66.2983
4.668	-0.181885	66.2983
4.669	-0.18219	66.2983
4.67	-0.182495	66.2983
4.671	-0.1828	66.2983
4.672	-0.183411	66.2983
4.673	-0.184021	66.2983
4.674	-0.184631	66.2983
4.675	-0.185242	66.2983
4.676	-0.185852	66.2983
4.677	-0.186462	66.2983
4.678	-0.186768	66.2983
4.679	-0.187073	66.2983
4.68	-0.187378	66.2983
4.681	-0.187683	66.2983
4.682	-0.187988	66.2983
4.683	-0.188293	66.2983
4.684	-0.188293	66.2983
4.685	-0.188293	66.2983
4.686	-0.187988	66.2983
4.687	-0.187988	66.2983
4.688	-0.187988	66.2983
4.689	-0.187988	66.2983
4.69	-0.187988	66.2983
4.691	-0.188293	66.2983
4.692	-0.188599	66.2983
4.693	-0.188904	66.2983
4.694	-0.189209	66.2983
4.695	-0.189514	66.2983
4.696	-0.190125	66.2983
4.697	-0.190735	66.2983
4.698	-0.19104	66.2983
4.699	-0.19165	66.2983
4.7	-0.192261	66.2983
4.701	-0.192566	66.2983
4.702	-0.192871	66.2983
4.703	-0.193176	66.2983
4.704	-0.193481	66.2983
4.705	-0.193481	66.2983
4.706	-0.193481	66.2983
4.707	-0.193176	66.2983
4.708	-0.192566	66.2983
4.709	-0.191956	66.2983
4.71	-0.191345	66.2983
4.711	-0.190735	66.2983
4.712	-0.190125	66.2983
4.713	-0.189209	66.2983
4.714	-0.188599	66.2983
4.715	-0.187988	66.2983
4.716	-0.187073	66.2983
4.717	-0.186462	66.2983
4.718	-0.185852	66.2983
4.719	-0.185242	66.2983
4.72	-0.184631	66.2983
4.721	-0.184326	66.2983
4.722	-0.184021	66.2983
4.723	-0.183716	66.2983
4.724	-0.183716	66.2983
4.725	-0.183716	66.2983
4.726	-0.184021	66.2983
4.727	-0.184326	66.2983
4.728	-0.184631	66.2983
4.729	-0.185242	66.2983
4.73	-0.185547	66.2983
4.731	-0.186157	66.2983
4.732	-0.186768	66.2983
4.733	-0.187073	66.2983
4.734	-0.187683	66.2983
4.735	-0.188293	66.2983
4.736	-0.188904	66.2983
4.737	-0.189209	66.2983
4.738	-0.189514	66.2983
4.739	-0.189819	66.2983
4.74	-0.189819	66.2983
4.741	-0.189819	66.2983
4.742	-0.189819	66.2983
4.743	-0.189819	66.2983
4.744	-0.189819	66.2983
4.745	-0.189514	66.2983
4.746	-0.189514	66.2983
4.747	-0.189514	66.2983
4.748	-0.189209	66.2983
4.749	-0.189209	66.2983
4.75	-0.188904	66.2983
4.751	-0.188599	66.2983
4.752	-0.188293	66.2983
4.753	-0.187988	66.2983
4.754	-0.187683	66.2983
4.755	-0.187378	66.2983
4.756	-0.187073	66.2983
4.757	-0.186768	66.2983
4.758	-0.186157	66.2983
4.759	-0.185852	66.2983
4.76	-0.185547	66.2983
4.761	-0.185242	66.2983
4.762	-0.185242	66.2983
4.763	-0.184937	66.2983
4.764	-0.184937	66.2983
4.765	-0.184937	66.2983
4.766	-0.184937	66.2983
4.767	-0.184937	66.2983
4.768	-0.184937	66.2983
4.769	-0.184937	66.2983
4.77	-0.184937	66.2983
4.771	-0.184937	66.2983
4.772	-0.184937	66.2983
4.773	-0.184937	66.2983
4.774	-0.184631	66.2983
4.775	-0.184631	66.2983
4.776	-0.184326	66.2983
4.777	-0.184021	66.2983
4.778	-0.183716	66.2983
4.779	-0.183411	66.2983
4.78	-0.183105	66.2983
4.781	-0.182495	66.2983
4.782	-0.18219	66.2983
4.783	-0.181885	66.2983
4.784	-0.181885	66.2983
4.785	-0.181885	66.2983
4.786	-0.181885	66.2983
4.787	-0.181885	66.2983
4.788	-0.181885	66.2983
4.789	-0.18158	66.2983
4.79	-0.18158	66.2983
4.791	-0.18158	66.2983
4.792	-0.18158	66.2983
4.793	-0.18158	66.2983
4.794	-0.18158	66.2983
4.795	-0.18158	66.2983
4.796	-0.18158	66.2983
4.797	-0.181274	66.2983
4.798	-0.181274	66.2983
4.799	-0.180969	66.2983
4.8	-0.180664	66.2983
4.801	-0.180054	66.2983
4.802	-0.179749	66.2983
4.803	-0.179443	66.2983
4.804	-0.179138	66.2983
4.805	-0.179138	66.2983
4.806	-0.178833	66.2983
4.807	-0.178833	66.2983
4.808	-0.178833	66.2983
4.809	-0.178528	66.2983
4.81	-0.178528	66.2983
4.811	-0.178528	66.2983
4.812	-0.178528	66.2983
4.813	-0.178528	66.2983
4.814	-0.178528	66.2983
4.815	-0.178528	66.2983
4.816	-0.178528	66.2983
4.817	-0.178528	66.2983
4.818	-0.178528	66.2983
4.819	-0.178528	66.2983
4.82	-0.178528	66.2983
4.821	-0.178528	66.2983
4.822	-0.178528	66.2983
4.823	-0.178528	66.2983
4.824	-0.178833	66.2983
4.825	-0.179138	66.2983
4.826	-0.179138	66.2983
4.827	-0.179443	66.2983
4.828	-0.179749	66.2983
4.829	-0.180054	66.2983
4.83	-0.180664	66.2983
4.831	-0.180969	66.2983
4.832	-0.18158	66.2983
4.833	-0.18219	66.2983
4.834	-0.182495	66.2983
4.835	-0.183105	66.2983
4.836	-0.183411	66.2983
4.837	-0.183411	66.2983
4.838	-0.183411	66.2983
4.839	-0.183411	66.2983
4.84	-0.183411	66.2983
4.841	-0.183411	66.2983
4.842	-0.183105	66.2983
4.843	-0.182495	66.2983
4.844	-0.181885	66.2983
4.845	-0.180664	66.2983
4.846	-0.179138	66.2983
4.847	-0.177307	66.2983
4.848	-0.175171	66.2983
4.849	-0.172729	66.2983
4.85	-0.170288	66.2983
4.851	-0.167236	66.2983
4.852	-0.164185	66.2983
4.853	-0.160522	66.2983
4.854	-0.15686	66.2983
4.855	-0.152893	66.2983
4.856	-0.148926	66.2983
4.857	-0.144653	66.2983
4.858	-0.140381	66.2983
4.859	-0.136108	66.2983
4.86	-0.132141	66.2983
4.861	-0.128174	66.2983
4.862	-0.124207	66.2983
4.863	-0.12085	66.2983
4.864	-0.117798	66.2983
4.865	-0.115051	66.2983
4.866	-0.11261	66.2983
4.867	-0.110168	66.2983
4.868	-0.108032	66.2983
4.869	-0.106201	66.2983
4.87	-0.104675	66.2983
4.871	-0.102844	66.2983
4.872	-0.101318	66.2983
4.873	-0.0997925	66.2983
4.874	-0.0985718	66.2983
4.875	-0.0970459	66.2983
4.876	-0.0958252	66.2983
4.877	-0.0942993	66.2983
4.878	-0.0924683	66.2983
4.879	-0.0906372	66.2983
4.88	-0.088501	66.2983
4.881	-0.0860596	66.2983
4.882	-0.0836182	66.2983
4.883	-0.0808716	66.2983
4.884	-0.078125	66.2983
4.885	-0.0750732	66.2983
4.886	-0.0723267	66.2983
4.887	-0.0695801	66.2983
4.888	-0.0671387	66.2983
4.889	-0.0643921	66.2983
4.89	-0.0619507	66.2983
4.891	-0.0592041	66.2983
4.892	-0.0564575	66.2983
4.893	-0.0534058	66.2983
4.894	-0.050354	66.2983
4.895	-0.0473022	66.2983
4.896	-0.0439453	66.2983
4.897	-0.0405884	66.2983
4.898	-0.0372314	66.2983
4.899	-0.0341797	66.2983
4.9	-0.0311279	66.2983
4.901	-0.0283813	66.2983
4.902	-0.0259399	66.2983
4.903	-0.0234985	66.2983
4.904	-0.0216675	66.2983
4.905	-0.0198364	66.2983
4.906	-0.0186157	66.2983
4.907	-0.0180054	66.2983
4.908	-0.017395	66.2983
4.909	-0.0177002	66.2983
4.91	-0.0180054	66.2983
4.911	-0.0189209	66.2983
4.912	-0.0201416	66.2983
4.913	-0.0213623	66.2983
4.914	-0.0228882	66.2983
4.915	-0.0247192	66.2983
4.916	-0.0265503	66.2983
4.917	-0.0286865	66.2983
4.918	-0.0311279	66.2983
4.919	-0.0332642	66.2983
4.92	-0.0357056	66.2983
4.921	-0.038147	66.2983
4.922	-0.0405884	66.2983
4.923	-0.043335	66.2983
4.924	-0.0463867	66.2983
4.925	-0.0497437	66.2983
4.926	-0.0534058	66.2983
4.927	-0.0576782	66.2983
4.928	-0.062561	66.2983
4.929	-0.0674438	66.2983
4.93	-0.0732422	66.2983
4.931	-0.0793457	66.2983
4.932	-0.0857544	66.2983
4.933	-0.0924683	66.2983
4.934	-0.0994873	66.2983
4.935	-0.106812	66.2983
4.936	-0.114136	66.2983
4.937	-0.12146	66.2983
4.938	-0.128479	66.2983
4.939	-0.135498	66.2983
4.94	-0.141907	66.2983
4.941	-0.148315	66.2983
4.942	-0.154114	66.2983
4.943	-0.159302	66.2983
4.944	-0.16449	66.2983
4.945	-0.168762	66.2983
4.946	-0.173035	66.2983
4.947	-0.177002	66.2983
4.948	-0.180359	66.2983
4.949	-0.183716	66.2983
4.95	-0.186768	66.2983
4.951	-0.189514	66.2983
4.952	-0.191956	66.2983
4.953	-0.194092	66.2983
4.954	-0.195923	66.2983
4.955	-0.197754	66.2983
4.956	-0.19928	66.2983
4.957	-0.2005	66.2983
4.958	-0.201721	66.2983
4.959	-0.202942	66.2983
4.96	-0.203857	66.2983
4.961	-0.204773	66.2983
4.962	-0.205383	66.2983
4.963	-0.205994	66.2983
4.964	-0.206299	66.2983
4.965	-0.206604	66.2983
4.966	-0.206909	66.2983
4.967	-0.206909	66.2983
4.968	-0.206909	66.2983
4.969	-0.207214	66.2983
4.97	-0.207214	66.2983
4.971	-0.207214	66.2983
4.972	-0.20752	66.2983
4.973	-0.207825	66.2983
4.974	-0.20813	66.2983
4.975	-0.208435	66.2983
4.976	-0.20874	66.2983
4.977	-0.209045	66.2983
4.978	-0.209351	66.2983
4.979	-0.209656	66.2983
4.98	-0.209656	66.2983
4.981	-0.209656	66.2983
4.982	-0.209656	66.2983
4.983	-0.209351	66.2983
4.984	-0.209045	66.2983
4.985	-0.20874	66.2983
4.986	-0.20813	66.2983
4.987	-0.207214	66.2983
4.988	-0.206299	66.2983
4.989	-0.205383	66.2983
4.99	-0.204468	66.2983
4.991	-0.203552	66.2983
4.992	-0.202637	66.2983
4.993	-0.201721	66.2983
4.994	-0.200806	66.2983
4.995	-0.200195	66.2983
4.996	-0.199585	66.2983
4.997	-0.19928	66.2983
4.998	-0.19928	66.2983
4.999	-0.19989	66.2983
5	-0.2005	66.2983
5.001	-0.202026	66.2983
5.002	-0.204468	66.2983
5.003	-0.20752	66.2983
5.004	-0.211487	66.2983
5.005	-0.216064	66.2983
5.006	-0.221252	66.2983
5.007	-0.226746	66.2983
5.008	-0.232239	66.2983
5.009	-0.237732	66.2983
5.01	-0.242615	66.2983
5.011	-0.246582	66.2983
5.012	-0.249023	66.2983
5.013	-0.249939	66.2983
5.014	-0.248718	66.2983
5.015	-0.245056	66.2983
5.016	-0.238342	66.2983
5.017	-0.228271	66.2983
5.018	-0.213928	66.2983
5.019	-0.195618	66.2983
5.02	-0.172424	66.2983
5.021	-0.144958	66.2983
5.022	-0.112305	66.2983
5.023	-0.0750732	66.2983
5.024	-0.0326538	66.2983
5.025	0.0149536	66.2983
5.026	0.067749	66.2983
5.027	0.125427	66.2983
5.028	0.188293	66.2983
5.029	0.255432	66.2983
5.03	0.326233	66.2983
5.031	0.398865	66.2983
5.032	0.471802	66.2983
5.033	0.543213	66.2983
5.034	0.610962	66.2983
5.035	0.673523	66.2983
5.036	0.72876	66.2983
5.037	0.775757	66.2983
5.038	0.813599	66.2983
5.039	0.84137	66.2983
5.04	0.85907	66.2983
5.041	0.865479	66.2983
5.042	0.860596	66.2983
5.043	0.843811	66.2983
5.044	0.81543	66.2983
5.045	0.775452	66.2983
5.046	0.725403	66.2983
5.047	0.666504	66.2983
5.048	0.600281	66.2983
5.049	0.529175	66.2983
5.05	0.454407	66.2983
5.051	0.378113	72.2022
5.052	0.302429	72.2022
5.053	0.228271	72.2022
5.054	0.157166	72.2022
5.055	0.0894165	72.2022
5.056	0.0256348	72.2022
5.057	-0.0341797	72.2022
5.058	-0.0894165	72.2022
5.059	-0.140076	72.2022
5.06	-0.185852	72.2022
5.061	-0.227356	72.2022
5.062	-0.264587	72.2022
5.063	-0.298157	72.2022
5.064	-0.328064	72.2022
5.065	-0.355225	72.2022
5.066	-0.379333	72.2022
5.067	-0.401001	72.2022
5.068	-0.419922	72.2022
5.069	-0.436096	72.2022
5.07	-0.449524	72.2022
5.071	-0.46051	72.2022
5.072	-0.468445	72.2022
5.073	-0.473938	72.2022
5.074	-0.476685	72.2022
5.075	-0.47699	72.2022
5.076	-0.474548	72.2022
5.077	-0.469666	72.2022
5.078	-0.462341	72.2022
5.079	-0.452576	72.2022
5.08	-0.440674	72.2022
5.081	-0.426636	72.2022
5.082	-0.411072	72.2022
5.083	-0.393982	72.2022
5.084	-0.375366	72.2022
5.085	-0.35614	72.2022
5.086	-0.336304	72.2022
5.087	-0.316162	72.2022
5.088	-0.296326	72.2022
5.089	-0.2771	72.2022
5.09	-0.258179	72.2022
5.091	-0.240173	72.2022
5.092	-0.223083	72.2022
5.093	-0.207214	72.2022
5.094	-0.192871	72.2022
5.095	-0.180054	72.2022
5.096	-0.169067	72.2022
5.097	-0.159912	72.2022
5.098	-0.152283	72.2022
5.099	-0.14679	72.2022
5.1	-0.142517	72.2022
5.101	-0.139771	72.2022
5.102	-0.138245	72.2022
5.103	-0.137939	72.2022
5.104	-0.137939	72.2022
5.105	-0.13855	72.2022
5.106	-0.139465	72.2022
5.107	-0.140381	72.2022
5.108	-0.141296	72.2022
5.109	-0.141602	72.2022
5.11	-0.141907	72.2022
5.111	-0.141907	72.2022
5.112	-0.141602	72.2022
5.113	-0.140686	72.2022
5.114	-0.139771	72.2022
5.115	-0.13855	72.2022
5.116	-0.137329	72.2022
5.117	-0.135803	72.2022
5.118	-0.134277	72.2022
5.119	-0.133057	72.2022
5.12	-0.131531	72.2022
5.121	-0.13031	72.2022
5.122	-0.129395	72.2022
5.123	-0.128479	72.2022
5.124	-0.127869	72.2022
5.125	-0.127258	72.2022
5.126	-0.126648	72.2022
5.127	-0.126343	72.2022
5.128	-0.125732	72.2022
5.129	-0.125427	72.2022
5.13	-0.125122	72.2022
5.131	-0.124817	72.2022
5.132	-0.124207	72.2022
5.133	-0.123596	72.2022
5.134	-0.122986	72.2022
5.135	-0.12207	72.2022
5.136	-0.121155	72.2022
5.137	-0.119934	72.2022
5.138	-0.118408	72.2022
5.139	-0.116882	72.2022
5.14	-0.115356	72.2022
5.141	-0.11322	72.2022
5.142	-0.111389	72.2022
5.143	-0.109253	72.2022
5.144	-0.106812	72.2022
5.145	-0.104675	72.2022
5.146	-0.102234	72.2022
5.147	-0.0997925	72.2022
5.148	-0.0973511	72.2022
5.149	-0.0952148	72.2022
5.15	-0.0930786	72.2022
5.151	-0.0909424	72.2022
5.152	-0.0891113	72.2022
5.153	-0.0872803	72.2022
5.154	-0.0854492	72.2022
5.155	-0.0839233	72.2022
5.156	-0.0820923	72.2022
5.157	-0.0808716	72.2022
5.158	-0.0793457	72.2022
5.159	-0.0778198	72.2022
5.16	-0.0765991	72.2022
5.161	-0.0750732	72.2022
5.162	-0.0738525	72.2022
5.163	-0.0723267	72.2022
5.164	-0.0708008	72.2022
5.165	-0.0692749	72.2022
5.166	-0.0674438	72.2022
5.167	-0.0656128	72.2022
5.168	-0.0637817	72.2022
5.169	-0.0619507	72.2022
5.17	-0.0598145	72.2022
5.171	-0.0579834	72.2022
5.172	-0.055542	72.2022
5.173	-0.0534058	72.2022
5.174	-0.0512695	72.2022
5.175	-0.0491333	72.2022
5.176	-0.0466919	72.2022
5.177	-0.0445557	72.2022
5.178	-0.0421143	72.2022
5.179	-0.0396729	72.2022
5.18	-0.0372314	72.2022
5.181	-0.0350952	72.2022
5.182	-0.0326538	72.2022
5.183	-0.0302124	72.2022
5.184	-0.027771	72.2022
5.185	-0.0250244	72.2022
5.186	-0.022583	72.2022
5.187	-0.0201416	72.2022
5.188	-0.017395	72.2022
5.189	-0.0146484	72.2022
5.19	-0.0119019	72.2022
5.191	-0.0088501	72.2022
5.192	-0.00579834	72.2022
5.193	-0.00274658	72.2022
5.194	0.000305176	72.2022
5.195	0.00335693	72.2022
5.196	0.00671387	72.2022
5.197	0.00976563	72.2022
5.198	0.0131226	72.2022
5.199	0.0161743	72.2022
5.2	0.0192261	72.2022
5.201	0.0222778	72.2022
5.202	0.0253296	72.2022
5.203	0.0283813	72.2022
5.204	0.0314331	72.2022
5.205	0.0344849	72.2022
5.206	0.0372314	72.2022
5.207	0.0402832	72.2022
5.208	0.0430298	72.2022
5.209	0.0457764	72.2022
5.21	0.0485229	72.2022
5.211	0.0512695	72.2022
5.212	0.0537109	72.2022
5.213	0.0564575	72.2022
5.214	0.0588989	72.2022
5.215	0.0613403	72.2022
5.216	0.0640869	72.2022
5.217	0.0665283	72.2022
5.218	0.0692749	72.2022
5.219	0.0720215	72.2022
5.22	0.0744629	72.2022
5.221	0.0772095	72.2022
5.222	0.0799561	72.2022
5.223	0.0827026	72.2022
5.224	0.0857544	72.2022
5.225	0.0888062	72.2022
5.226	0.0921631	72.2022
5.227	0.09552	72.2022
5.228	0.0985718	72.2022
5.229	0.101624	72.2022
5.23	0.10498	72.2022
5.231	0.108032	72.2022
5.232	0.111389	72.2022
5.233	0.114746	72.2022
5.234	0.117798	72.2022
5.235	0.12085	72.2022
